,cycle,p_center,p_height,p_width,q_center,q_height,q_width,r_center,r_height,r_width,s_center,s_height,s_width,t_center,t_height,t_width,r_squared,pr_interval,pr_segment,qrs_duration,st_segment,qt_interval,p_duration,pp_interval,rr_interval,fwhm_p,rise_time_p,decay_time_p,rise_decay_symmetry_p,sharpness_deriv_p,sharpness_diff_p,fwhm_q,rise_time_q,decay_time_q,rise_decay_symmetry_q,sharpness_deriv_q,fwhm_r,rise_time_r,decay_time_r,rise_decay_symmetry_r,sharpness_deriv_r,sharpness_diff_r,fwhm_s,rise_time_s,decay_time_s,rise_decay_symmetry_s,sharpness_deriv_s,fwhm_t,rise_time_t,decay_time_t,rise_decay_symmetry_t,sharpness_deriv_t,sharpness_diff_t,Average_Heart_Rate,SDNN,RMSSD,NN50,p_on,p_off,q_on,q_off,r_on,r_off,s_on,s_off,t_on,t_off
0,0,0.0,0.0,0.0,0.0,0.0,0.0,0.0,0.0,0.0,0.0,0.0,0.0,0.0,0.0,0.0,0.0,0.0,0.0,0.0,0.0,0.0,0.0,0.0,0.0,0.0,0.0,0.0,0.0,0.0,0.0,0.0,0.0,0.0,0.0,0.0,0.0,0.0,0.0,0.0,0.0,0.0,0.0,0.0,0.0,0.0,0.0,0.0,0.0,0.0,0.0,0.0,0.0,60.00000014573725,155.38398170162222,213.06155747278126,13.0,,,,,,,,,,
1,1,3050.3361578615973,0.09697671175650674,13.817612200532395,3148.9726263010075,-0.06709901879438598,10.823147856115282,3185.643457067015,1.7427536492956452,11.316203394901295,3215.4520345991364,-0.3045929183693583,6.844343008822672,3491.86372301545,0.494202323318411,36.57153186722841,0.9934651252823394,102.0,74.0,85.0,312.0,397.0,28.0,,,34.0,17.0,17.0,0.5,0.1017363539292514,0.017230949987336333,16.0,10.0,6.0,0.625,0.08072574910479619,0.017212379569383828,27.0,14.0,13.0,0.5185185185185185,1.6780293470448178,0.01740677951917015,13.0,4.0,9.0,0.3076923076923077,0.6527053627021855,0.01733255913214889,93.0,47.0,46.0,0.5053763440860215,,,,0.0,3037.0,3065.0,3139.0,3155.0,3172.0,3199.0,3211.0,3224.0,3445.0,3536.0
2,2,4049.3310420987495,0.09229163453705116,14.838819355550994,4147.547965400863,-0.053685124730524454,15.287792405178672,4185.593095599792,1.741344111342642,11.333846179522139,4215.303210367139,-0.2978126931845874,6.8870193139884694,4491.827757376443,0.49537269915446575,36.6044530104041,0.9932590362569805,105.0,72.0,86.0,314.0,400.0,33.0,1003.0,1000.0,46.0,23.0,23.0,0.5,0.06481988846315648,0.020016582510384767,16.0,10.0,6.0,0.625,0.054715245733511955,0.013479851601129732,27.0,14.0,13.0,0.5185185185185185,1.6904170149484103,0.023815631296782398,14.0,4.0,10.0,0.2857142857142857,0.627307142520802,0.01951228741974212,90.0,44.0,46.0,0.4888888888888889,,,,0.0,4033.0,4066.0,4138.0,4151.0,4172.0,4199.0,4211.0,4224.0,4448.0,4538.0
3,3,5052.328730098417,0.09441595162386512,14.871162958118681,5146.849321800287,-0.07755526246760017,5.095930801701914,5185.672422769799,1.743831002792866,11.17689750976233,5215.647895117677,-0.29734531048834656,6.70659766729814,5491.84316172815,0.4972910571781368,36.76385407051922,0.9935290566087396,113.0,76.0,80.0,312.0,392.0,37.0,1005.0,1000.0,39.0,22.0,17.0,0.5641025641025641,0.09088464829832413,0.01071498889000029,13.0,7.0,6.0,0.5384615384615384,0.01728944958204716,0.028252328659518326,27.0,14.0,13.0,0.5185185185185185,1.680299741169784,0.027885338291258145,14.0,6.0,8.0,0.42857142857142855,0.5998522130411847,0.02773706290101598,90.0,46.0,44.0,0.5111111111111111,,,,0.0,5031.0,5068.0,5144.0,5150.0,5172.0,5199.0,5210.0,5224.0,5446.0,5536.0
4,4,6050.424660900143,0.11273250014433801,2.5479654008640567,6148.547965400863,-0.06087369962107444,15.28779240496584,6185.550915538807,1.7365048615507404,11.360528358907786,6215.515893055158,-0.30924018244435053,6.9599411106968,6491.7839671061665,0.49029927350792635,36.26059725901704,0.9891818613779813,91.0,77.0,85.0,312.0,397.0,14.0,993.0,1000.0,14.0,1.0,13.0,0.07142857142857142,0.09295511770556909,0.01663096044225567,16.0,12.0,4.0,0.75,0.07642633016468625,0.022496984832255564,27.0,14.0,13.0,0.5185185185185185,1.682079164684405,0.02160936663472289,14.0,5.0,9.0,0.35714285714285715,0.5963812784311588,0.021379424424901664,92.0,46.0,46.0,0.5,,,,0.0,6049.0,6063.0,6140.0,6153.0,6172.0,6199.0,6211.0,6225.0,6448.0,6537.0
5,5,8049.001946383721,0.09151291427672327,14.257595142350764,8146.5479654008595,-0.062352107591939786,15.287792397982887,8185.639430684585,1.7350145601387197,11.361236392780237,8215.31805081516,-0.30645263656384053,7.051031840358207,8491.903695482606,0.49102065222818714,36.20420517897211,0.9923273197062522,102.0,78.0,86.0,313.0,399.0,24.0,2000.0,2002.0,33.0,18.0,15.0,0.5454545454545454,0.07639192099617143,0.02011146091682298,19.0,11.0,8.0,0.5789473684210527,0.044378258618066935,0.020547845460668752,28.0,14.0,14.0,0.5,1.679804247707661,0.02080479217356871,13.0,4.0,9.0,0.3076923076923077,0.6517546106126286,0.02076791256718105,93.0,47.0,46.0,0.5053763440860215,,,,0.0,8036.0,8060.0,8138.0,8153.0,8172.0,8200.0,8212.0,8224.0,8449.0,8537.0
6,6,9050.048562940683,0.09196634292262165,15.490754375940211,9150.12330450068,-0.06541097807738336,12.739826857444866,9185.628094004225,1.7397210320172076,11.35401367845537,9215.477286178282,-0.3059784360905643,6.812639581618777,9491.74272333445,0.4927428694482338,36.29958863995042,0.9929511426174878,106.0,73.0,84.0,313.0,397.0,33.0,1000.0,999.0,33.0,16.0,17.0,0.48484848484848486,0.09857971011589317,0.01205211206413426,15.0,12.0,3.0,0.8,0.10073327498028961,0.028272562742679763,27.0,14.0,13.0,0.5185185185185185,1.689205366048062,0.027493382659659345,14.0,4.0,10.0,0.2857142857142857,0.6374517889797773,0.02757257794672395,89.0,43.0,46.0,0.48314606741573035,,,,0.0,9034.0,9067.0,9140.0,9153.0,9172.0,9199.0,9211.0,9224.0,9450.0,9537.0
7,7,10049.61209361318,0.08921679463625234,15.066983222643268,10148.547965400861,-0.05935199802126033,15.287792338709952,10185.605737711036,1.7360669118446423,11.379746491333016,10215.317551348506,-0.30929167378285566,6.864595865828488,10491.88918967424,0.48925902025164714,36.4496824451526,0.9924691729873113,109.0,72.0,85.0,311.0,396.0,37.0,997.0,999.0,37.0,19.0,18.0,0.5135135135135135,0.07719463831196344,0.02036097897003305,17.0,12.0,5.0,0.7058823529411765,0.0751277711155911,0.02026228481827039,27.0,14.0,13.0,0.5185185185185185,1.6939092266698417,0.020405015506125355,14.0,4.0,10.0,0.2857142857142857,0.6499078944872438,0.020132144202019694,90.0,45.0,45.0,0.5,,,,0.0,10031.0,10068.0,10140.0,10152.0,10172.0,10199.0,10211.0,10225.0,10450.0,10536.0
8,8,11049.506460805744,0.09217881853127315,15.047268158841092,11150.371897717296,-0.06114145443439751,10.191861603456152,11185.666491381808,1.7442796090661956,11.28963572268768,11215.525358031446,-0.29505096664450625,6.843333062206168,11492.09173781862,0.4960406846871112,36.670574760166105,0.9934584616074769,108.0,74.0,86.0,313.0,399.0,34.0,1001.0,1001.0,40.0,21.0,19.0,0.525,0.05368058608336941,0.019122050940539485,15.0,12.0,3.0,0.8,0.11197194743110503,0.01873040120380245,27.0,14.0,13.0,0.5185185185185185,1.701668496817919,0.018739236887127336,13.0,5.0,8.0,0.38461538461538464,0.6127477338885076,0.01882046861432576,92.0,45.0,47.0,0.4891304347826087,,,,0.0,11030.0,11064.0,11138.0,11153.0,11172.0,11199.0,11211.0,11224.0,11448.0,11537.0
9,9,12049.787000347078,0.09325556690278115,15.115981218108473,12148.123304500717,-0.06077198358917878,12.739826971638449,12185.686709075564,1.7373443292151793,11.368118409648767,12215.189907564192,-0.30503279049503423,6.948839020700792,12491.883898339227,0.4933765224929566,36.58986575239903,0.9926557843211491,107.0,74.0,83.0,312.0,395.0,33.0,1002.0,1000.0,33.0,16.0,17.0,0.48484848484848486,0.10001422804048288,0.019016733874628947,12.0,7.0,5.0,0.5833333333333334,0.04427720860518081,0.019749787518533318,27.0,14.0,13.0,0.5185185185185185,1.7062528537365178,0.019972587449984515,14.0,4.0,10.0,0.2857142857142857,0.6574642963368628,0.020060614253267578,94.0,47.0,47.0,0.5,,,,0.0,12034.0,12067.0,12141.0,12153.0,12172.0,12199.0,12211.0,12224.0,12447.0,12536.0
10,10,13050.168632174096,0.0907427294027153,15.05243631158202,13150.123304500717,-0.0633572273381816,12.739827004296385,13185.637263160474,1.7347309711458148,11.406359743375353,13215.22288716561,-0.3062663744943062,6.95351554190312,13491.981351503908,0.49393330097000326,36.42228031291233,0.993153168253753,109.0,74.0,82.0,314.0,396.0,35.0,1002.0,999.0,36.0,19.0,17.0,0.5277777777777778,0.09668720027527847,0.01825181077996794,17.0,13.0,4.0,0.7647058823529411,0.10207550083479552,0.018633814981686782,27.0,14.0,13.0,0.5185185185185185,1.682753694246126,0.01899137477727419,14.0,4.0,10.0,0.2857142857142857,0.6550644194247557,0.019128113277089936,91.0,45.0,46.0,0.4945054945054945,,,,0.0,13032.0,13067.0,13141.0,13153.0,13172.0,13199.0,13211.0,13223.0,13447.0,13537.0
11,11,14049.763660626308,0.09422914018979515,13.985528599284011,14146.698643600574,-0.06395453760570688,10.191861603098328,14185.675680474871,1.7424357093917904,11.254191015321197,14215.564096949185,-0.2994468263302688,6.872477413341767,14492.102902207438,0.49390196204652004,36.608035042512746,0.9932349090919086,110.0,74.0,84.0,313.0,397.0,36.0,999.0,1001.0,36.0,19.0,17.0,0.5277777777777778,0.08959319148076453,0.01801077167565158,15.0,8.0,7.0,0.5333333333333333,0.030795445400887085,0.018044628076386095,27.0,14.0,13.0,0.5185185185185185,1.711993112131276,0.018630097890583376,14.0,5.0,9.0,0.35714285714285715,0.6067125114658498,0.01869969985333115,90.0,44.0,46.0,0.4888888888888889,,,,0.0,14031.0,14067.0,14141.0,14154.0,14172.0,14199.0,14211.0,14225.0,14448.0,14538.0
12,12,15049.641906478659,0.08824917458188908,14.288809647556059,15148.698643600574,-0.06858294679910253,10.191861603456227,15185.664613000277,1.737391543410199,11.297350483602667,15215.257034348328,-0.3012949720990789,7.0192980406309395,15491.989534507218,0.4920462009342668,36.31881503781924,0.9925565699335319,110.0,77.0,81.0,313.0,394.0,33.0,1000.0,1000.0,38.0,19.0,19.0,0.5,0.07662950098689071,0.011919004971633194,17.0,12.0,5.0,0.7058823529411765,0.08730435222558877,0.031225620186661134,27.0,14.0,13.0,0.5185185185185185,1.7180433987210655,0.032236707905848275,13.0,4.0,9.0,0.3076923076923077,0.6508337409443532,0.032331296679387674,92.0,46.0,46.0,0.5,,,,0.0,15033.0,15066.0,15143.0,15154.0,15172.0,15199.0,15211.0,15224.0,15448.0,15537.0
13,13,16049.791574232137,0.09362108629792554,15.461205983725275,16149.697337347096,-0.07312309698427817,5.095930801728113,16185.682850824622,1.7537831610422383,11.167194437790405,16215.57649111164,-0.3005233772551841,6.560554480618144,16492.10152772474,0.4931592842462098,36.78586969063625,0.9934442982870126,110.0,80.0,79.0,311.0,390.0,30.0,1001.0,1000.0,34.0,16.0,18.0,0.47058823529411764,0.08798546869892743,0.01824040781945656,7.0,5.0,2.0,0.7142857142857143,0.10401236648776957,0.022334558977902482,27.0,14.0,13.0,0.5185185185185185,1.7081118712086834,0.022044771233709657,13.0,5.0,8.0,0.38461538461538464,0.6302256328606897,0.02191288703758343,88.0,45.0,43.0,0.5113636363636364,,,,0.0,16035.0,16065.0,16145.0,16152.0,16172.0,16199.0,16211.0,16224.0,16447.0,16535.0
14,14,17050.904069198277,0.09316910517154738,14.795467483542826,17145.69864360057,-0.060757094537591975,10.191861603456225,17185.692076940923,1.7457657643587017,11.239243582987031,17215.565626333202,-0.29454225705834425,6.72757436451268,17492.011320276248,0.4947666803828716,36.57205485976807,0.9932572125306792,108.0,72.0,84.0,312.0,396.0,36.0,1004.0,998.0,36.0,19.0,17.0,0.5277777777777778,0.08067701242642332,0.015104518245746502,17.0,8.0,9.0,0.47058823529411764,0.015830009425473537,0.014573930820635773,27.0,14.0,13.0,0.5185185185185185,1.6993128177153016,0.014481278177378421,13.0,5.0,8.0,0.38461538461538464,0.6152114803169327,0.014481278177378421,91.0,44.0,47.0,0.4835164835164835,,,,0.0,17032.0,17068.0,17140.0,17148.0,17172.0,17199.0,17211.0,17224.0,17449.0,17536.0
15,15,18049.729653005717,0.08950431504024478,14.998843069806428,18145.27398270043,-0.06453240089634824,7.643896202584631,18185.69182374354,1.7471172177858603,11.179985557605075,18215.470676327226,-0.30596096297789693,6.457992933196843,18492.056275617873,0.4958491146598611,36.830578948359,0.993513842385944,111.0,76.0,83.0,313.0,396.0,35.0,996.0,1001.0,35.0,20.0,15.0,0.5714285714285714,0.07542287627971697,0.010098805718653119,18.0,8.0,10.0,0.4444444444444444,0.009129870248360913,0.028021945755227297,28.0,14.0,14.0,0.5,1.6899443155520588,0.049003079518503335,13.0,4.0,9.0,0.3076923076923077,0.6483544389451131,0.040995790364172946,93.0,46.0,47.0,0.4946236559139785,,,,0.0,18030.0,18065.0,18141.0,18155.0,18172.0,18199.0,18211.0,18224.0,18448.0,18537.0
16,16,19057.876695499283,0.08587836689988015,12.739826989157354,19147.424660900142,-0.0802505169692229,2.547965400790339,19185.679284762155,1.747974589408311,11.116267704420988,19215.674893443327,-0.296784453906321,6.543837868631501,19492.214650268084,0.49386169611815234,36.62514854913384,0.9922442682127471,112.0,81.0,78.0,313.0,391.0,31.0,1008.0,1000.0,31.0,24.0,7.0,0.7741935483870968,0.06536328253243506,0.014782522598282374,5.0,1.0,4.0,0.2,0.008207212880544289,0.014554343383218099,27.0,14.0,13.0,0.5185185185185185,1.693421484827045,0.014357068746893466,13.0,5.0,8.0,0.38461538461538464,0.6294114521162391,0.014357068746893466,93.0,46.0,47.0,0.4946236559139785,,,,0.0,19034.0,19065.0,19146.0,19151.0,19172.0,19199.0,19211.0,19224.0,19447.0,19537.0
17,17,20049.183197934974,0.08800556392388477,15.270582572978137,20149.333859197905,-0.05567222774101751,12.739827004301901,20185.642270407112,1.7426024688128345,11.317900987119302,20215.45203459914,-0.3025203336782176,6.866869169581825,20492.133570858776,0.49178277058268827,36.70225435424277,0.9930417792404157,110.0,75.0,83.0,311.0,394.0,35.0,986.0,1001.0,41.0,18.0,23.0,0.43902439024390244,0.0805540208219933,0.015431503707108357,13.0,9.0,4.0,0.6923076923076923,0.08374966473324527,0.023691112149463296,27.0,14.0,13.0,0.5185185185185185,1.7226888742401951,0.022981592309672682,14.0,4.0,10.0,0.2857142857142857,0.6266741563431583,0.023010923627759472,93.0,46.0,47.0,0.4946236559139785,,,,0.0,20031.0,20066.0,20141.0,20153.0,20172.0,20199.0,20211.0,20224.0,20449.0,20535.0
18,18,21046.095930801723,0.08786982847741728,15.50640291294071,21150.29477922022,-0.08256428593690937,5.095930801728113,21185.725324068313,1.7427411545159863,11.200467282065112,21215.54536688685,-0.301580696773453,6.669512766458186,21492.049048951616,0.49236707685462555,36.48874393922949,0.9929258890455233,111.0,76.0,85.0,311.0,396.0,35.0,995.0,1000.0,40.0,17.0,23.0,0.425,0.08734390000851021,0.009586696201804926,17.0,11.0,6.0,0.6470588235294118,0.09861405406824605,0.029986439506360443,27.0,14.0,13.0,0.5185185185185185,1.6885327883454373,0.06808538259177462,14.0,5.0,9.0,0.35714285714285715,0.6123657287845811,0.04354806491779305,93.0,46.0,47.0,0.4946236559139785,,,,0.0,21029.0,21064.0,21140.0,21153.0,21172.0,21199.0,21211.0,21225.0,21447.0,21536.0
19,19,22050.32873009842,0.09058337637583612,15.238100600008286,22149.698518388963,-0.06679579556221565,10.191861603456227,22185.65960201088,1.7404240582676125,11.36037544240153,22215.310702994717,-0.30516324331811834,6.925564675278772,22492.048146418587,0.49553246879440704,36.63575494945325,0.9931045721204101,108.0,74.0,84.0,314.0,398.0,34.0,1014.0,999.0,42.0,22.0,20.0,0.5238095238095238,0.07812023145767413,0.020996523829815768,13.0,10.0,3.0,0.7692307692307693,0.09724398128734205,0.021441497763846212,27.0,14.0,13.0,0.5185185185185185,1.6984937853671904,0.021240275509194974,13.0,4.0,9.0,0.3076923076923077,0.6599538159633143,0.02118444608854257,88.0,42.0,46.0,0.4772727272727273,,,,0.0,22032.0,22066.0,22140.0,22152.0,22172.0,22199.0,22211.0,22224.0,22450.0,22538.0
20,20,23049.41206035651,0.0880753284306491,15.31904176586497,23149.805676526765,-0.057350450459391654,12.739827004216043,23185.63516631406,1.7402942622608937,11.30758650643816,23215.466358319143,-0.3019192020397322,6.959691955544375,23491.641860684696,0.4921207560824548,36.81963764048889,0.9930695794929213,110.0,74.0,83.0,313.0,396.0,36.0,993.0,1001.0,40.0,20.0,20.0,0.5,0.06250931354369954,0.01954791529588077,14.0,11.0,3.0,0.7857142857142857,0.10848398902936247,0.019467427516721453,27.0,14.0,13.0,0.5185185185185185,1.716905828393788,0.019749806096756098,14.0,4.0,10.0,0.2857142857142857,0.6404954338817731,0.019874211510364937,90.0,45.0,45.0,0.5,,,,0.0,23031.0,23067.0,23141.0,23153.0,23172.0,23199.0,23211.0,23224.0,23447.0,23537.0
21,21,24049.544357071944,0.09424000105207506,15.131536150567282,24148.84932160501,-0.07846971438359543,5.095930801716995,24185.67695801735,1.7495971496854543,11.181842814613914,24215.64639111332,-0.29627610269891314,6.540613097782644,24492.03910001717,0.4957333712862816,36.84016344693874,0.9939502710285217,109.0,73.0,84.0,313.0,397.0,36.0,1003.0,999.0,39.0,19.0,20.0,0.48717948717948717,0.08067062804400639,0.011414108071851123,17.0,11.0,6.0,0.6470588235294118,0.06697063833821923,0.026977498167183797,27.0,14.0,13.0,0.5185185185185185,1.6941971261838447,0.026622184890086806,14.0,5.0,9.0,0.35714285714285715,0.5918350542417312,0.027066914340884696,88.0,43.0,45.0,0.48863636363636365,,,,0.0,24031.0,24067.0,24140.0,24150.0,24172.0,24199.0,24211.0,24224.0,24449.0,24537.0
22,22,25049.095930801723,0.08683165940974305,15.011481965221293,25147.123304500717,-0.06458783275423977,12.739827004320146,25185.660651033424,1.739306018169113,11.301975137525794,25215.521395868567,-0.29842036825546875,6.927203623462982,25492.064562896045,0.4928675737208687,36.40465572738653,0.9925390753901129,108.0,77.0,85.0,312.0,397.0,31.0,993.0,1000.0,34.0,18.0,16.0,0.5294117647058824,0.08520537763497303,0.011007228893290023,15.0,7.0,8.0,0.4666666666666667,0.03824515321602687,0.029500969787107412,27.0,14.0,13.0,0.5185185185185185,1.6983768248474225,0.04836970591356382,14.0,5.0,9.0,0.35714285714285715,0.6062242465783308,0.03970704836337349,91.0,46.0,45.0,0.5054945054945055,,,,0.0,25032.0,25063.0,25140.0,25154.0,25172.0,25199.0,25211.0,25225.0,25446.0,25537.0
23,23,26050.198350689014,0.08524933296741413,14.685877979149025,26150.528456915672,-0.0700720298458823,12.739827004315483,26185.588953663053,1.7387497206216662,11.378593270173667,26215.363284336592,-0.30851778477255176,6.851328889034195,26492.11250210518,0.4923915530656029,36.546479023310546,0.9928013246128451,107.0,81.0,84.0,313.0,397.0,26.0,1006.0,1002.0,26.0,16.0,10.0,0.6153846153846154,0.09585896683361707,0.015097549015138998,18.0,15.0,3.0,0.8333333333333334,0.14414638461870483,0.014619185828615532,27.0,14.0,13.0,0.5185185185185185,1.698594651658136,0.014651833871241455,14.0,4.0,10.0,0.2857142857142857,0.6494615506534601,0.01460325937370706,93.0,47.0,46.0,0.5053763440860215,,,,0.0,26034.0,26060.0,26141.0,26154.0,26172.0,26199.0,26211.0,26225.0,26447.0,26538.0
24,24,27049.964777594134,0.09579886335696491,14.275978850970256,27148.69864360057,-0.06322646758518691,10.191861603398452,27185.640740095747,1.7385911222662265,11.270448209653098,27215.560876237476,-0.3044680924666647,6.679119507910372,27492.061989758564,0.49509572324317747,36.52279438141408,0.9928966977085286,106.0,78.0,82.0,315.0,397.0,28.0,999.0,998.0,34.0,16.0,18.0,0.47058823529411764,0.09766916403991228,0.011865404476972447,10.0,8.0,2.0,0.8,0.056439546375430076,0.034681285249530895,27.0,14.0,13.0,0.5185185185185185,1.679621384874555,0.03731797933581469,12.0,5.0,7.0,0.4166666666666667,0.6077426741724449,0.03817698595691601,90.0,44.0,46.0,0.4888888888888889,,,,0.0,27035.0,27063.0,27141.0,27151.0,27172.0,27199.0,27211.0,27223.0,27448.0,27538.0
25,25,29049.685266848563,0.08979456073345714,14.644772226078873,29149.972626301005,-0.054000740400263154,17.83575780558921,29185.50176980471,1.751559768213331,11.32520346726568,29215.567773564137,-0.3031153216906243,6.851113236688451,29491.939813842557,0.4941176126818227,36.423094514986545,0.9928685304102859,106.0,74.0,86.0,312.0,398.0,32.0,1997.0,2000.0,32.0,18.0,14.0,0.5625,0.09740830201585035,0.010914567988879458,16.0,12.0,4.0,0.75,0.11339885027424272,0.03143222886023196,27.0,14.0,13.0,0.5185185185185185,1.713381799258277,0.055205616419112716,13.0,5.0,8.0,0.38461538461538464,0.6190334834160727,0.03906014677508459,94.0,47.0,47.0,0.5,,,,0.0,29032.0,29064.0,29138.0,29154.0,29172.0,29199.0,29211.0,29224.0,29446.0,29536.0
26,26,30050.32873009842,0.09287248803060955,15.080405420985395,30150.123304500707,-0.05767505831280897,12.739826908900618,30185.623377022144,1.7394219168300176,11.393043993130666,30215.196775394277,-0.2996981372272346,6.853469853658695,30491.863975288168,0.4936873838098316,36.8003575236255,0.9931898676737768,106.0,76.0,81.0,313.0,394.0,30.0,1009.0,1001.0,37.0,21.0,16.0,0.5675675675675675,0.09578744688013477,0.011280432770935999,11.0,8.0,3.0,0.7272727272727273,0.1008072144238892,0.03203177139099014,27.0,14.0,13.0,0.5185185185185185,1.6987325727532991,0.03144691117066831,14.0,4.0,10.0,0.2857142857142857,0.6285650888090196,0.03235339302799291,88.0,44.0,44.0,0.5,,,,0.0,30036.0,30066.0,30142.0,30153.0,30172.0,30199.0,30211.0,30223.0,30448.0,30536.0
27,27,31053.178051898707,0.08865450849488399,15.043817198223369,31149.123304500717,-0.058221935613490414,12.73982697132419,31185.68304667898,1.7415786701650844,11.326675209023346,31215.287819890764,-0.30532977815127704,6.84888020544649,31492.011739061694,0.4956259617580288,36.59702577185544,0.9926035006873702,108.0,76.0,82.0,313.0,395.0,32.0,1002.0,999.0,33.0,19.0,14.0,0.5757575757575758,0.08446297424904642,0.012164528778715062,11.0,7.0,4.0,0.6363636363636364,0.0740855321855374,0.028384105114981427,27.0,14.0,13.0,0.5185185185185185,1.7002885684940647,0.028298412782138252,13.0,4.0,9.0,0.3076923076923077,0.6534151189936305,0.028271807560836897,89.0,44.0,45.0,0.4943820224719101,,,,0.0,31034.0,31066.0,31142.0,31153.0,31172.0,31199.0,31211.0,31224.0,31448.0,31537.0
28,28,32050.0345898888,0.09275591436308603,14.38671953692056,32149.123304500692,-0.059761763754097044,12.739826507619984,32185.661171834472,1.741462010051452,11.345499539709794,32215.409650410384,-0.30558104458602686,6.884653437948092,32491.92605594692,0.4940193202175728,36.667041088567984,0.993238247697648,104.0,72.0,84.0,314.0,398.0,32.0,993.0,1002.0,32.0,15.0,17.0,0.46875,0.11050844919970992,0.009922568442979198,14.0,10.0,4.0,0.7142857142857143,0.07124566920278498,0.02883831122264092,27.0,14.0,13.0,0.5185185185185185,1.6980416541187995,0.029031386525620134,13.0,4.0,9.0,0.3076923076923077,0.663798794839807,0.029037405597938503,90.0,45.0,45.0,0.5,,,,0.0,32035.0,32067.0,32139.0,32152.0,32172.0,32199.0,32211.0,32223.0,32447.0,32537.0
29,29,33049.285272923495,0.09404458746357275,14.210145739939184,33149.54796540086,-0.05399029534529778,15.287792061128666,33185.59852720757,1.7431083565064613,11.388021764860392,33215.45203459914,-0.3050314967175384,6.8411511571823596,33491.80523736333,0.49137412451112494,36.77995224597763,0.9931723068672881,105.0,77.0,83.0,311.0,394.0,28.0,997.0,998.0,35.0,20.0,15.0,0.5714285714285714,0.07925387597158924,0.0153612678539279,15.0,11.0,4.0,0.7333333333333333,0.10282928444577105,0.0316513043462746,27.0,14.0,13.0,0.5185185185185185,1.695910835268511,0.06813983320704414,14.0,4.0,10.0,0.2857142857142857,0.6612914492918436,0.04459524617711684,87.0,44.0,43.0,0.5057471264367817,,,,0.0,33036.0,33064.0,33141.0,33154.0,33172.0,33199.0,33211.0,33224.0,33448.0,33535.0
30,30,34050.90406919828,0.09287216974906319,14.764051199363376,34149.742526685106,-0.07618811848079617,5.095930801728113,34185.6230434565,1.7539671901464258,11.071594479519053,34216.87669549929,-0.2870632208220857,6.627346691062146,34491.84249794691,0.49548012867019564,36.89512334467318,0.9931191148999607,112.0,76.0,80.0,313.0,393.0,36.0,1009.0,1000.0,40.0,20.0,20.0,0.5,0.08948851942412428,0.017650260226627315,8.0,6.0,2.0,0.75,0.08349732675437381,0.01741833970377859,27.0,14.0,13.0,0.5185185185185185,1.6963417584729699,0.01741104721119979,13.0,6.0,7.0,0.46153846153846156,0.5482603491278197,0.017313339673507778,90.0,45.0,45.0,0.5,,,,0.0,34032.0,34068.0,34144.0,34152.0,34172.0,34199.0,34211.0,34224.0,34447.0,34537.0
31,31,35049.320851117285,0.09546645707256242,14.881191778491953,35147.273982700426,-0.060797737662622614,7.64389620259217,35185.68811729578,1.7465963164989433,11.280622380567573,35215.452037020674,-0.2941945348306421,6.846938537612437,35491.68769235397,0.4973465156178603,37.04930332310726,0.9939611639760279,108.0,79.0,81.0,314.0,395.0,29.0,991.0,1001.0,34.0,18.0,16.0,0.5294117647058824,0.08997056693653283,0.01696836452239286,18.0,10.0,8.0,0.5555555555555556,0.04978285643892104,0.01689432277743345,27.0,14.0,13.0,0.5185185185185185,1.6886611689016984,0.01699060559551973,14.0,4.0,10.0,0.2857142857142857,0.6412913977133863,0.01697372933310935,94.0,48.0,46.0,0.5106382978723404,,,,0.0,35035.0,35064.0,35143.0,35153.0,35172.0,35199.0,35211.0,35224.0,35448.0,35538.0
32,32,36051.178051898714,0.09047523541815329,15.252680401957114,36149.273982700426,-0.06833270126989682,7.643896202592157,36185.69163294452,1.7447871017448584,11.23308925310806,36215.61136639573,-0.30196017832463,6.825893144828787,36491.87573139452,0.49278966738990815,36.33792651874834,0.9930200328733244,111.0,80.0,81.0,311.0,392.0,31.0,1008.0,1000.0,37.0,22.0,15.0,0.5945945945945946,0.07180349071535688,0.012037675695673516,17.0,11.0,6.0,0.6470588235294118,0.07959841438208891,0.023918094606547237,27.0,14.0,13.0,0.5185185185185185,1.700219099962784,0.023872647866965833,14.0,5.0,9.0,0.35714285714285715,0.6250984886622309,0.024050921916821084,90.0,46.0,44.0,0.5111111111111111,,,,0.0,36033.0,36064.0,36144.0,36151.0,36172.0,36199.0,36211.0,36225.0,36447.0,36536.0
33,33,37049.4561842418,0.09036415160299091,14.700669755603418,37151.12330450071,-0.06415290075993454,12.739827004008239,37185.57619182216,1.7432159013565642,11.385480359463179,37215.45203459914,-0.3005515539562406,7.274230860030263,37491.92723251107,0.4932531236727911,36.29355249355441,0.9926992308974031,104.0,72.0,87.0,313.0,400.0,32.0,994.0,1000.0,32.0,16.0,16.0,0.5,0.10853053999154039,0.013018827476839474,18.0,14.0,4.0,0.7777777777777778,0.14416503363808333,0.03162020561534981,27.0,14.0,13.0,0.5185185185185185,1.7006643605739165,0.05898902529435624,16.0,5.0,11.0,0.3125,0.6248093219338022,0.03991197454268435,90.0,45.0,45.0,0.5,,,,0.0,37033.0,37065.0,37137.0,37154.0,37172.0,37199.0,37211.0,37224.0,37447.0,37537.0
34,34,38050.31905100201,0.09445768838130815,15.096095818107557,38149.27398262875,-0.06908300678438481,7.643896202302624,38185.67079562409,1.7478843303844795,11.245415756033353,38215.395994409715,-0.30250151885292226,6.583741041857895,38492.02476945364,0.49519203313322474,36.895962519890375,0.9934522399592611,104.0,75.0,83.0,313.0,396.0,29.0,1000.0,1000.0,30.0,15.0,15.0,0.5,0.1049368558423504,0.009667301170920099,14.0,9.0,5.0,0.6428571428571429,0.06207774905881489,0.01992940563194982,27.0,14.0,13.0,0.5185185185185185,1.6982147213847192,0.07123631727092634,13.0,4.0,9.0,0.3076923076923077,0.6430325451212585,0.04366728120067335,95.0,47.0,48.0,0.49473684210526314,,,,0.0,38036.0,38065.0,38140.0,38151.0,38172.0,38199.0,38211.0,38223.0,38449.0,38536.0
35,35,40049.418723831535,0.08753543086778354,14.539917659305642,40149.705944627756,-0.07173042613736501,5.095930801728113,40185.667963241685,1.7497477831086157,11.184165008796377,40215.4221229906,-0.29661166702647035,6.80090725859517,40492.11605372903,0.49587025024108355,36.65927073183063,0.9934840023375007,107.0,73.0,84.0,312.0,396.0,34.0,2002.0,1998.0,34.0,16.0,18.0,0.47058823529411764,0.0793463838214647,0.01827153972278629,21.0,16.0,5.0,0.7619047619047619,0.1365010773338483,0.018791460762391545,27.0,14.0,13.0,0.5185185185185185,1.6858769175758137,0.018563746725826086,13.0,4.0,9.0,0.3076923076923077,0.6549960420081962,0.01861000254803696,90.0,44.0,46.0,0.4888888888888889,,,,0.0,40033.0,40067.0,40140.0,40151.0,40172.0,40199.0,40211.0,40224.0,40448.0,40536.0
36,36,41049.91628109092,0.09449838001618772,15.145942272445488,41150.69864115021,-0.05692482996916396,10.191861593530374,41185.652095723846,1.740361076006779,11.330855774874111,41215.28784919718,-0.30246080130943337,6.738313303507744,41492.019669214715,0.4934597273256571,37.09634185415632,0.9936451558339868,109.0,75.0,83.0,315.0,398.0,34.0,1000.0,1002.0,37.0,19.0,18.0,0.5135135135135135,0.07439399242159875,0.010716171350582908,12.0,10.0,2.0,0.8333333333333334,0.14029977429409018,0.03198812157160831,27.0,14.0,13.0,0.5185185185185185,1.690466266117288,0.032618930076521654,13.0,4.0,9.0,0.3076923076923077,0.6438202548474212,0.03243843410766317,93.0,45.0,48.0,0.4838709677419355,,,,0.0,41032.0,41066.0,41141.0,41153.0,41172.0,41199.0,41211.0,41224.0,41447.0,41539.0
37,37,42049.72960356458,0.08868854972052123,13.743137033494893,42149.54796540078,-0.059660305198000155,15.287792014090169,42185.638412772394,1.7368498957514564,11.381998229189884,42215.250867722505,-0.31211455164618235,7.0870987294105054,42491.97044834674,0.49348621008663823,36.1970807198274,0.992785338411642,104.0,79.0,84.0,312.0,396.0,25.0,998.0,1000.0,30.0,18.0,12.0,0.6,0.10059785087243012,0.020076228263997378,13.0,9.0,4.0,0.6923076923076923,0.1009009908224204,0.0216307426436909,27.0,14.0,13.0,0.5185185185185185,1.7115254706746943,0.021587549525491988,14.0,4.0,10.0,0.2857142857142857,0.6526481010108627,0.02170777135618375,89.0,43.0,46.0,0.48314606741573035,,,,0.0,42037.0,42062.0,42141.0,42154.0,42172.0,42199.0,42211.0,42225.0,42449.0,42537.0
38,38,43052.60271279886,0.09077812529242058,14.683056466987535,43146.849321800284,-0.07474685995512793,5.095930801727948,43185.71669640122,1.7475951531114282,11.119044522684257,43215.481315460165,-0.30507466034875774,6.568042378006725,43491.94785960966,0.4931093892296969,36.638184113947844,0.9930386302672443,110.0,80.0,80.0,314.0,394.0,30.0,1007.0,1000.0,37.0,22.0,15.0,0.5945945945945946,0.06849054547285846,0.018868845511952018,18.0,11.0,7.0,0.6111111111111112,0.04526760661434399,0.019204445875470474,27.0,14.0,13.0,0.5185185185185185,1.699170560222627,0.019128530704082745,13.0,4.0,9.0,0.3076923076923077,0.6627484876768799,0.01917199372138273,91.0,45.0,46.0,0.4945054945054945,,,,0.0,43034.0,43064.0,43144.0,43153.0,43172.0,43199.0,43211.0,43224.0,43447.0,43538.0
39,39,44049.52059170187,0.09086256153798812,14.940063510842801,44147.424660900135,-0.07347192293366746,2.5479654008640567,44185.66009607071,1.7493102885290965,11.10112064428265,44215.79179758715,-0.29461216847991145,6.574665948530932,44492.15419073867,0.48920458660181687,36.54490865462221,0.9929899610166001,114.0,79.0,80.0,313.0,393.0,35.0,988.0,1001.0,35.0,19.0,16.0,0.5428571428571428,0.08065620678822488,0.019037741772837093,3.0,2.0,1.0,0.6666666666666666,0.029497960731122395,0.01948005778158677,27.0,14.0,13.0,0.5185185185185185,1.6627567787920552,0.019552963311447832,14.0,5.0,9.0,0.35714285714285715,0.5756580527854172,0.019299952077197768,89.0,43.0,46.0,0.48314606741573035,,,,0.0,44031.0,44066.0,44145.0,44148.0,44172.0,44199.0,44211.0,44225.0,44449.0,44538.0
40,40,46049.639677526495,0.09232441345576664,14.214164269843161,46148.97558190395,-0.06399025662753305,12.739827003444633,46185.605509708854,1.7342906563991005,11.336904541346806,46215.573520873644,-0.3019997583550403,6.972337772659025,46491.75459435137,0.495460683757887,36.17060575512885,0.9927651584795728,104.0,72.0,88.0,310.0,398.0,32.0,2003.0,1998.0,32.0,17.0,15.0,0.53125,0.08603096931011861,0.011457911336515308,17.0,12.0,5.0,0.7058823529411765,0.08313387636058517,0.03056487333798332,27.0,14.0,13.0,0.5185185185185185,1.6999246437129396,0.04735960061957318,14.0,5.0,9.0,0.35714285714285715,0.6191564484696985,0.040139758126365964,87.0,44.0,43.0,0.5057471264367817,,,,0.0,46033.0,46065.0,46137.0,46154.0,46172.0,46199.0,46211.0,46225.0,46448.0,46535.0
41,41,47050.26009552176,0.0923924445460403,15.283937986464254,47145.849321800284,-0.0703624730143913,5.095930666658284,47185.70480237536,1.7465560271313343,11.134042344485913,47215.52165993497,-0.2930899708394573,6.611725842817168,47491.925266036174,0.493463022903089,36.69127024367234,0.9930827959865627,111.0,77.0,82.0,311.0,393.0,34.0,1003.0,1001.0,34.0,18.0,16.0,0.5294117647058824,0.10713143796017863,0.01945073016214673,11.0,5.0,6.0,0.45454545454545453,0.018018243814099374,0.018904220850287125,27.0,14.0,13.0,0.5185185185185185,1.6998177716731404,0.018840261480910038,14.0,5.0,9.0,0.35714285714285715,0.585344359853236,0.019103028250769493,91.0,45.0,46.0,0.4945054945054945,,,,0.0,47032.0,47066.0,47143.0,47152.0,47172.0,47199.0,47211.0,47225.0,47447.0,47536.0
42,42,48050.513409675434,0.09702735224648767,15.590727691436943,48148.972626301,-0.05520397687739801,11.718834966180152,48185.62672635584,1.7468614393517248,11.29810739624483,48215.31214087165,-0.29925115451906503,6.596685916028549,48491.961340932656,0.4962681298945289,37.14389642134065,0.9937105871108017,107.0,72.0,85.0,314.0,399.0,35.0,1001.0,1001.0,35.0,19.0,16.0,0.5428571428571428,0.1081583996733084,0.010146627752010305,15.0,10.0,5.0,0.6666666666666666,0.09990683109355308,0.031805933064603935,27.0,14.0,13.0,0.5185185185185185,1.699820718552948,0.044103472957371354,14.0,4.0,10.0,0.2857142857142857,0.6361260784913547,0.0406096337704372,92.0,46.0,46.0,0.5,,,,0.0,48032.0,48067.0,48139.0,48154.0,48172.0,48199.0,48211.0,48224.0,48446.0,48538.0
43,43,49049.50537021237,0.09333431903895195,14.586269546157277,49144.123304500696,-0.05339189355199272,12.739826762351669,49185.67426733775,1.7422048531892769,11.279556256820927,49215.34636287875,-0.29824729719302656,6.833667959281055,49491.86674394158,0.49528122436373645,36.81678839595932,0.9932061062941476,100.0,73.0,87.0,313.0,400.0,27.0,997.0,999.0,33.0,19.0,14.0,0.5757575757575758,0.09624358468310432,0.014173402259262228,19.0,7.0,12.0,0.3684210526315789,0.0056412042812664966,0.011059134448982415,27.0,14.0,13.0,0.5185185185185185,1.7002677596480413,0.056267344260555505,14.0,4.0,10.0,0.2857142857142857,0.6363442730448532,0.03650221331534544,91.0,46.0,45.0,0.5054945054945055,,,,0.0,49037.0,49064.0,49137.0,49154.0,49172.0,49199.0,49211.0,49224.0,49446.0,49537.0
44,44,50049.78745547217,0.08991569098394642,14.582376671877794,50148.78726009246,-0.07888977705360845,5.095930801728113,50185.73245353276,1.7511969887702696,11.1195894160017,50215.49956455344,-0.30337671960205037,6.764857929861433,50491.9040582783,0.49297513928955455,36.451330894785016,0.9933076821032056,107.0,73.0,84.0,310.0,394.0,34.0,1001.0,999.0,38.0,20.0,18.0,0.5263157894736842,0.07840852994186312,0.017436828223561525,11.0,9.0,2.0,0.8181818181818182,0.05367630546517977,0.024394955465294573,27.0,14.0,13.0,0.5185185185185185,1.6993521378062513,0.0240650457204823,13.0,4.0,9.0,0.3076923076923077,0.6550646587916316,0.02363699318174052,89.0,44.0,45.0,0.4943820224719101,,,,0.0,50033.0,50067.0,50140.0,50151.0,50172.0,50199.0,50211.0,50224.0,50448.0,50534.0
45,45,51049.912539979814,0.08886405768667857,14.641658907230891,51149.54796540086,-0.05756114315516093,15.287792227827472,51185.61898147601,1.7460392988699465,11.370136979339163,51215.269615948826,-0.2954714644509699,7.038479224429178,51491.863245138964,0.49290214821617595,36.68511292976402,0.9932161489209471,107.0,77.0,83.0,312.0,395.0,30.0,1001.0,1001.0,30.0,16.0,14.0,0.5333333333333333,0.09797920508917318,0.010637349290530647,16.0,11.0,5.0,0.6875,0.10404675719509193,0.033407312709925835,27.0,14.0,13.0,0.5185185185185185,1.7100282533857216,0.04295776773454216,14.0,4.0,10.0,0.2857142857142857,0.6425425708085057,0.04113276285652289,91.0,45.0,46.0,0.4945054945054945,,,,0.0,51034.0,51064.0,51141.0,51155.0,51172.0,51199.0,51211.0,51224.0,51449.0,51536.0
46,46,52049.88989550781,0.09267907725553483,15.177322875775555,52148.69864360055,-0.06266165976114263,10.191861364520209,52185.6690023805,1.7420378074532432,11.289879917275886,52215.32011084361,-0.3020108598925736,6.652482695352324,52491.835320293154,0.49449219237049763,36.89142627527151,0.9936250384994357,109.0,75.0,81.0,313.0,394.0,34.0,998.0,1000.0,35.0,18.0,17.0,0.5142857142857142,0.08900800507751148,0.011477842740981894,12.0,7.0,5.0,0.5833333333333334,0.09532930037742662,0.03436422038189478,27.0,14.0,13.0,0.5185185185185185,1.695870880842436,0.04275432166970594,14.0,4.0,10.0,0.2857142857142857,0.6492500205938976,0.04173818149502084,90.0,46.0,44.0,0.5111111111111111,,,,0.0,52033.0,52067.0,52142.0,52151.0,52172.0,52199.0,52211.0,52223.0,52447.0,52536.0
47,47,53049.6130729734,0.09145470715792273,14.8366843543633,53148.273982700426,-0.06855982283401338,7.64389620197705,53185.69281627767,1.7450074070646688,11.270941317313566,53215.52345509913,-0.30406624973149526,6.754616121669711,53491.81647204999,0.49277845811686005,36.96981254264152,0.9935984182808382,111.0,78.0,81.0,314.0,395.0,33.0,1005.0,998.0,34.0,19.0,15.0,0.5588235294117647,0.09406140736303317,0.012118959036205688,16.0,9.0,7.0,0.5625,0.07200929524525615,0.0319237662396487,27.0,14.0,13.0,0.5185185185185185,1.677318490906297,0.031106674988657646,13.0,5.0,8.0,0.38461538461538464,0.6147618264409751,0.03128507011984004,92.0,46.0,46.0,0.5,,,,0.0,53032.0,53065.0,53143.0,53150.0,53172.0,53199.0,53211.0,53224.0,53447.0,53538.0
48,48,54050.370434462035,0.08896989994811483,15.169695017942171,54151.43587884853,-0.06519558527005204,10.19186160160102,54185.609559241915,1.736841068028888,11.330338754570537,54215.452034599715,-0.29424177968593807,6.951288101384131,54492.12186799967,0.49442081244302616,36.66535040631188,0.9933214992393901,106.0,70.0,85.0,313.0,398.0,36.0,999.0,1002.0,38.0,19.0,19.0,0.5,0.094710854227986,0.014453799286273935,15.0,12.0,3.0,0.8,0.12720105507482873,0.014453799286273935,27.0,14.0,13.0,0.5185185185185185,1.6800290762291503,0.014453799286273935,14.0,4.0,10.0,0.2857142857142857,0.6292064347525603,0.014453799286273935,93.0,46.0,47.0,0.4946236559139785,,,,0.0,54033.0,54069.0,54139.0,54154.0,54172.0,54199.0,54211.0,54224.0,54449.0,54537.0
49,49,55050.047014594085,0.09121317276613271,15.18578205024865,55149.54796540086,-0.04804078563002506,15.287792129734813,55185.59721527386,1.747177480670194,11.336882221308601,55215.45203459914,-0.29421303109486624,6.798433540244221,55491.8598867026,0.49508130042356213,36.702346131495815,0.9934778922475581,105.0,74.0,84.0,312.0,396.0,31.0,1000.0,999.0,35.0,19.0,16.0,0.5428571428571428,0.09813885137677074,0.020048964222976595,16.0,12.0,4.0,0.75,0.1271857286658276,0.020526733076092082,27.0,14.0,13.0,0.5185185185185185,1.6789809094096766,0.020667797770676396,14.0,4.0,10.0,0.2857142857142857,0.6206412812133739,0.021055012785841685,93.0,47.0,46.0,0.5053763440860215,,,,0.0,55035.0,55066.0,55140.0,55153.0,55172.0,55199.0,55211.0,55224.0,55446.0,55536.0
50,50,56048.246609001435,0.0932597574927102,14.50043181880745,56149.972626301,-0.05639512254580451,17.83575768322884,56185.58114689949,1.7514156440002047,11.355640870316423,56215.36793213337,-0.30728607290734955,6.886229290020516,56492.07454256839,0.49284530653767733,36.536384315627565,0.9928705117169528,103.0,71.0,88.0,313.0,401.0,32.0,992.0,1001.0,32.0,14.0,18.0,0.4375,0.10114321762179292,0.014533080515457902,20.0,15.0,5.0,0.75,0.11470950947832453,0.014533080515457902,27.0,14.0,13.0,0.5185185185185185,1.7172264748994759,0.014533080515457902,14.0,4.0,10.0,0.2857142857142857,0.6421781224787255,0.014533080515457902,92.0,45.0,47.0,0.4891304347826087,,,,0.0,56034.0,56066.0,56137.0,56154.0,56172.0,56199.0,56211.0,56225.0,56449.0,56538.0
51,51,57049.08603287316,0.09734957484240658,14.918492073638083,57149.27632188152,-0.0599644216168035,10.19186160345263,57185.659637425066,1.743579259762597,11.300826828535296,57215.35855008538,-0.3048228656758177,6.958453786552537,57491.878107633784,0.4926224042387028,36.764500258199824,0.9934862956298177,106.0,75.0,85.0,313.0,398.0,31.0,1008.0,1000.0,37.0,19.0,18.0,0.5135135135135135,0.0802557376965313,0.015538533725609486,19.0,14.0,5.0,0.7368421052631579,0.07326396203274058,0.014912873740701073,27.0,14.0,13.0,0.5185185185185185,1.706074035947556,0.014720189267232106,14.0,4.0,10.0,0.2857142857142857,0.641277531270161,0.014722237952935004,92.0,45.0,47.0,0.4891304347826087,,,,0.0,57033.0,57064.0,57139.0,57154.0,57172.0,57199.0,57211.0,57224.0,57448.0,57537.0
52,52,58049.753390998565,0.09166406294738795,14.864620790949132,58146.12330450071,-0.057490283554766874,12.739826920378384,58185.64535299021,1.7419440735158913,11.264698868577172,58215.45537897431,-0.31109813200532527,6.670954712662231,58491.898087203364,0.49136762858905236,36.58495182721246,0.9926077467025772,103.0,75.0,85.0,313.0,398.0,28.0,1002.0,999.0,28.0,14.0,14.0,0.5,0.08899016881227521,0.014490219579123432,16.0,8.0,8.0,0.5,0.01766302487916733,0.014490219579123432,27.0,14.0,13.0,0.5185185185185185,1.6834717638406285,0.014490219579123432,13.0,4.0,9.0,0.3076923076923077,0.6482458433505995,0.014490219579123432,89.0,44.0,45.0,0.4943820224719101,,,,0.0,58036.0,58064.0,58139.0,58153.0,58172.0,58199.0,58211.0,58224.0,58448.0,58537.0
53,53,59049.480743512235,0.0931399089351771,15.236803242993158,59149.12330450071,-0.057503977606995674,12.739827004320285,59185.652955437276,1.738484408611786,11.337151122743103,59215.28332666421,-0.30085946015043263,6.87131381558893,59491.77971063231,0.4937238455920892,36.695324566857344,0.9930144032360175,108.0,74.0,82.0,313.0,395.0,34.0,1001.0,1001.0,34.0,15.0,19.0,0.4411764705882353,0.10224560763299886,0.011553221531742352,14.0,8.0,6.0,0.5714285714285714,0.08987378977144828,0.0329851277508343,27.0,14.0,13.0,0.5185185185185185,1.701712029282984,0.043872633464644574,13.0,4.0,9.0,0.3076923076923077,0.6456894954140596,0.04086125024363351,88.0,43.0,45.0,0.48863636363636365,,,,0.0,59034.0,59068.0,59142.0,59152.0,59172.0,59199.0,59211.0,59224.0,59449.0,59537.0
54,54,60049.69366120308,0.08628159203853451,14.86003374285235,60151.210719350165,-0.0664085563199471,10.191861602243256,60185.71622012503,1.7378759355866238,11.336524275582022,60215.38186144975,-0.30691597663951803,7.051143687576918,60492.09456081408,0.4907100409675049,36.587496674566815,0.992430698896223,105.0,83.0,81.0,313.0,394.0,22.0,993.0,1001.0,38.0,20.0,18.0,0.5263157894736842,0.08117534341921699,0.017249916981741345,16.0,13.0,3.0,0.8125,0.13167440942685865,0.023616595462465022,27.0,14.0,13.0,0.5185185185185185,1.6899128872026554,0.023307771656507516,13.0,4.0,9.0,0.3076923076923077,0.6512312113664702,0.023248912695698887,90.0,45.0,45.0,0.5,,,,0.0,60038.0,60060.0,60143.0,60154.0,60172.0,60199.0,60211.0,60224.0,60447.0,60537.0
55,55,61049.75339099921,0.08782803963921638,14.231645328612464,61149.12330450071,-0.06622769830350303,12.739826952591855,61185.6525179658,1.734651058193811,11.367485176887799,61215.32208987225,-0.3057579985374874,7.205753682294226,61492.080802919874,0.48798059461993953,36.12053043204221,0.9916502611793414,109.0,78.0,82.0,313.0,395.0,31.0,1006.0,999.0,31.0,17.0,14.0,0.5483870967741935,0.08895401327445575,0.01509408093454821,22.0,17.0,5.0,0.7727272727272727,0.08692823988506124,0.014778692387443414,27.0,14.0,13.0,0.5185185185185185,1.685084345979992,0.014641001125285973,13.0,4.0,9.0,0.3076923076923077,0.6728552948796083,0.014641001125285973,90.0,45.0,45.0,0.5,,,,0.0,61033.0,61064.0,61142.0,61154.0,61172.0,61199.0,61211.0,61224.0,61447.0,61537.0
56,56,63049.899552312374,0.0953999062748904,14.624548706775203,63150.69864360057,-0.06710959987417071,10.19186148898814,63185.625861525834,1.7396844367005473,11.336477854468377,63215.31711666781,-0.3001019424610207,6.80327504603242,63492.03572176065,0.4945762802435421,36.93866167639668,0.9933155237306737,108.0,80.0,80.0,314.0,394.0,28.0,1994.0,1999.0,34.0,18.0,16.0,0.5294117647058824,0.0850122886114887,0.012491676108865087,14.0,11.0,3.0,0.7857142857142857,0.1402225156160429,0.028835211383365714,27.0,14.0,13.0,0.5185185185185185,1.7005024261123545,0.028686802636428498,13.0,4.0,9.0,0.3076923076923077,0.6403489354259638,0.028572440769705453,89.0,43.0,46.0,0.48314606741573035,,,,0.0,63036.0,63064.0,63144.0,63153.0,63172.0,63199.0,63211.0,63224.0,63449.0,63538.0
57,57,64049.2171778699,0.08813459454545654,15.431459483800078,64149.698643600546,-0.06398565447975191,10.19186157580628,64185.63751429505,1.7410166503994244,11.329955524459423,64215.39363134011,-0.3013380511229471,6.780292837053236,64492.08221489665,0.4940835769248717,36.7284600083432,0.9935021521462344,108.0,74.0,85.0,312.0,397.0,34.0,1004.0,1000.0,37.0,19.0,18.0,0.5135135135135135,0.07875187803502416,0.011934943174191666,19.0,14.0,5.0,0.7368421052631579,0.11916524314601099,0.02757416863887413,28.0,14.0,14.0,0.5,1.69169019031321,0.027113228204415796,14.0,4.0,10.0,0.2857142857142857,0.6467282685023086,0.027054463914698262,91.0,46.0,45.0,0.5054945054945055,,,,0.0,64032.0,64066.0,64140.0,64152.0,64172.0,64199.0,64211.0,64225.0,64450.0,64537.0
58,58,65052.753390998565,0.08153268410623099,14.5201872812618,65148.54796540086,-0.06166783350620317,15.287792403982982,65185.633804978264,1.736030689832669,11.368664113591231,65215.45203459914,-0.30637681629320024,7.073450838146694,65491.96826608597,0.49076322398665845,36.11435054993045,0.9920930117069433,104.0,73.0,84.0,313.0,397.0,31.0,1005.0,1001.0,36.0,22.0,14.0,0.6111111111111112,0.0712659776164026,0.010825464095071388,13.0,9.0,4.0,0.6923076923076923,0.056564457201679484,0.033558127468579446,27.0,14.0,13.0,0.5185185185185185,1.699259251107894,0.034352795251507674,13.0,4.0,9.0,0.3076923076923077,0.6512324578934093,0.03484414659412773,89.0,44.0,45.0,0.4943820224719101,,,,0.0,65036.0,65067.0,65140.0,65153.0,65172.0,65199.0,65211.0,65224.0,65448.0,65537.0
59,59,66041.54796540085,0.08280443224817682,15.28779240518434,66149.972626301,-0.05414742560903871,17.835757495597395,66185.5870349154,1.7514692661303402,11.366813247402128,66215.33038790703,-0.30024984957651796,6.93237439608269,66492.14349165927,0.4972262331032276,36.749049868806175,0.9929060545754064,107.0,76.0,84.0,313.0,397.0,31.0,982.0,1000.0,37.0,10.0,27.0,0.2702702702702703,0.11000206166600737,0.018226551015700698,14.0,10.0,4.0,0.7142857142857143,0.09635374379330552,0.017581726582100377,27.0,14.0,13.0,0.5185185185185185,1.6969472147986797,0.017701831849208906,13.0,4.0,9.0,0.3076923076923077,0.6579760401783571,0.01777641913941786,89.0,44.0,45.0,0.4943820224719101,,,,0.0,66033.0,66064.0,66140.0,66154.0,66172.0,66199.0,66211.0,66224.0,66448.0,66537.0
60,60,67049.38937746623,0.09470821430724669,14.482506435568903,67150.04765645033,-0.06239635685018949,10.191861603214038,67185.65444235325,1.7417719617841299,11.298877480891605,67215.41750417124,-0.3042324904668905,6.7742594531661595,67491.86909725159,0.4961519035836019,36.4641140613027,0.9933551742034351,111.0,79.0,80.0,313.0,393.0,32.0,1015.0,1000.0,35.0,15.0,20.0,0.42857142857142855,0.1018380166558697,0.020058226469277754,18.0,13.0,5.0,0.7222222222222222,0.12422722872528022,0.01977104232575148,27.0,14.0,13.0,0.5185185185185185,1.7249340753525346,0.01984470421905862,14.0,4.0,10.0,0.2857142857142857,0.65951034799802,0.01986420546628478,90.0,44.0,46.0,0.4888888888888889,,,,0.0,67034.0,67066.0,67145.0,67155.0,67172.0,67199.0,67211.0,67225.0,67448.0,67538.0
61,61,68049.56175950338,0.09309930157723591,15.178449849859376,68148.69864360057,-0.05956597437269854,10.19186158479246,68185.6812369932,1.7430169688005321,11.299019778337353,68215.37018906909,-0.30030747253838247,6.798622059119024,68491.95106399525,0.4958006418694957,36.67115575152039,0.9933536400855051,110.0,80.0,82.0,313.0,395.0,30.0,995.0,999.0,39.0,17.0,22.0,0.4358974358974359,0.07317775916984426,0.011731724952159022,20.0,14.0,6.0,0.7,0.10007722070062373,0.02518047294881893,28.0,14.0,14.0,0.5,1.6934843029631632,0.025295902768511104,14.0,4.0,10.0,0.2857142857142857,0.655088827350572,0.025849595358935395,92.0,46.0,46.0,0.5,,,,0.0,68033.0,68063.0,68143.0,68151.0,68172.0,68200.0,68211.0,68225.0,68448.0,68538.0
62,62,69049.09592579328,0.08679024119368357,14.532793560208393,69150.01974357806,-0.07130378222565571,12.739827004320276,69185.64364335619,1.7350540116118862,11.413803165215564,69215.29869807325,-0.3120211041302779,7.205291896571792,69492.00275581822,0.4903889932151577,36.19855045615521,0.9922426179638647,108.0,75.0,84.0,313.0,397.0,33.0,995.0,1002.0,37.0,19.0,18.0,0.5135135135135135,0.06799915616090284,0.01881426954888581,21.0,16.0,5.0,0.7619047619047619,0.11205132125937167,0.01877118521428307,27.0,14.0,13.0,0.5185185185185185,1.6735224539146296,0.018802786259071686,14.0,4.0,10.0,0.2857142857142857,0.666752319145222,0.01869544739494619,92.0,46.0,46.0,0.5,,,,0.0,69032.0,69065.0,69140.0,69154.0,69172.0,69199.0,69211.0,69224.0,69448.0,69537.0
63,63,70049.49046124444,0.09586235293584094,14.48913608071781,70151.12330449869,-0.062133470310086814,12.739825538697303,70185.61278887324,1.742635914505115,11.383168527925353,70215.22517097439,-0.3068778526521622,6.746719140371402,70492.02135445665,0.4949898425366122,36.87917292275707,0.9935609612835078,105.0,75.0,83.0,314.0,397.0,30.0,1005.0,997.0,30.0,14.0,16.0,0.4666666666666667,0.09563817970335822,0.017838838039411636,15.0,11.0,4.0,0.7333333333333333,0.13354808690889564,0.022842994190845466,27.0,14.0,13.0,0.5185185185185185,1.6723148408851864,0.022776871639812242,13.0,4.0,9.0,0.3076923076923077,0.6439120410066832,0.023075947128090003,94.0,47.0,47.0,0.5,,,,0.0,70035.0,70065.0,70140.0,70154.0,70172.0,70199.0,70211.0,70223.0,70446.0,70537.0
64,64,71049.60271279895,0.08725398235111458,14.264130900468974,71146.12330450071,-0.0589965374825336,12.739825222040015,71185.67811499094,1.740824320385922,11.304734779661791,71215.43892351144,-0.3024157757449374,7.04425855796702,71491.98473940165,0.49151548364925923,36.1540643795348,0.9921354370425657,101.0,78.0,86.0,310.0,396.0,23.0,1004.0,1002.0,36.0,18.0,18.0,0.5,0.08098724075020457,0.014833242016463381,15.0,7.0,8.0,0.4666666666666667,0.00221015750573534,0.014833242016463381,27.0,14.0,13.0,0.5185185185185185,1.7011221208616232,0.014833242016463381,15.0,5.0,10.0,0.3333333333333333,0.6417327631640779,0.014833242016463381,87.0,44.0,43.0,0.5057471264367817,,,,0.0,71038.0,71061.0,71139.0,71154.0,71172.0,71199.0,71211.0,71225.0,71448.0,71535.0
65,65,72049.39627416932,0.09377849792325627,15.056745067603297,72149.27398267222,-0.06692049449576741,7.64389620259217,72185.6809902961,1.7424039076625846,11.23807272389819,72215.50292108959,-0.2990198454483659,6.823604097301603,72492.05451823057,0.4943260249792542,36.525931895224005,0.9930981495545317,100.0,72.0,85.0,314.0,399.0,28.0,995.0,1000.0,33.0,16.0,17.0,0.48484848484848486,0.09848145328780442,0.010610366681616315,15.0,11.0,4.0,0.7333333333333333,0.07313620715734687,0.03117388558542795,27.0,14.0,13.0,0.5185185185185185,1.688831564556798,0.030902231733008264,14.0,5.0,9.0,0.35714285714285715,0.5839191536325312,0.030529223750430365,91.0,44.0,47.0,0.4835164835164835,,,,0.0,72038.0,72066.0,72138.0,72151.0,72172.0,72199.0,72211.0,72223.0,72449.0,72537.0
66,66,73049.95492300403,0.09357951243269261,14.334888084230736,73151.0108180723,-0.05980532595293126,15.287792402722742,73185.58759318285,1.740781684000704,11.411544055219847,73215.26228128251,-0.3061940943075921,7.030127654082251,73492.24368763386,0.4928729613242127,36.30310875757861,0.9928636154945686,107.0,77.0,83.0,312.0,395.0,30.0,1002.0,999.0,30.0,15.0,15.0,0.5,0.09881544741241942,0.01139068850881511,17.0,13.0,4.0,0.7647058823529411,0.14645378925421518,0.026739624069354886,27.0,14.0,13.0,0.5185185185185185,1.6826980764144888,0.0736771612449827,14.0,4.0,10.0,0.2857142857142857,0.6587134401384401,0.0429873038781691,90.0,43.0,47.0,0.4777777777777778,,,,0.0,73035.0,73065.0,73142.0,73155.0,73172.0,73199.0,73211.0,73225.0,73449.0,73537.0
67,67,74049.63935775022,0.09301731601051405,14.354270611758928,74147.69864360057,-0.06407763444828453,10.191861597661937,74185.71953343763,1.7413933929030658,11.307311730580933,74215.35789980718,-0.29530996536575943,6.99646456593959,74491.98035989742,0.4957487448259245,36.5920693091596,0.9931109583126447,106.0,77.0,82.0,314.0,396.0,29.0,1004.0,1000.0,37.0,19.0,18.0,0.5135135135135135,0.07008798830576687,0.01176876676650406,14.0,8.0,6.0,0.5714285714285714,0.05028607762073204,0.025544443643205836,28.0,14.0,14.0,0.5,1.6882486210441208,0.025414368291317796,13.0,4.0,9.0,0.3076923076923077,0.6648106455771174,0.025170776910331243,94.0,48.0,46.0,0.5106382978723404,,,,0.0,74036.0,74065.0,74142.0,74152.0,74172.0,74199.0,74211.0,74224.0,74447.0,74538.0
68,68,75049.40495608123,0.09803764531100095,14.163841395795988,75147.79341963821,-0.08278312988148052,2.5479654008640567,75185.72386762267,1.7476554320451185,11.155292715703444,75215.69761370888,-0.2953171345135095,6.802187964376874,75491.96708895697,0.4964262520826665,36.720208723299734,0.9937158217774639,109.0,77.0,83.0,312.0,395.0,32.0,995.0,1001.0,32.0,16.0,16.0,0.5,0.11448563047408072,0.023356464019282538,7.0,6.0,1.0,0.8571428571428571,0.031289073850578816,0.023650888429014773,27.0,14.0,13.0,0.5185185185185185,1.7141611088618613,0.019703588461626842,14.0,5.0,9.0,0.35714285714285715,0.5981010096124555,0.016606005646677177,89.0,44.0,45.0,0.4943820224719101,,,,0.0,75033.0,75065.0,75142.0,75149.0,75172.0,75199.0,75211.0,75225.0,75449.0,75537.0
69,69,76055.30135639943,0.09595751170424736,10.191861603456227,76148.972626301,-0.05873611625029948,17.83575773841372,76185.57271127691,1.7411594012867964,11.385881214886165,76215.39748434655,-0.30720659801427763,7.081738463091585,76491.79688871883,0.4935629658723448,36.24859106256702,0.991502049895815,103.0,76.0,87.0,314.0,401.0,27.0,1008.0,1000.0,33.0,25.0,8.0,0.7575757575757576,0.057252254883011666,0.02146123336360067,16.0,12.0,4.0,0.75,0.07585556199172326,0.021623902250104715,27.0,14.0,13.0,0.5185185185185185,1.6834652819714078,0.02177262811050237,14.0,4.0,10.0,0.2857142857142857,0.642297106045959,0.0214959026978891,90.0,44.0,46.0,0.4888888888888889,,,,0.0,76034.0,76061.0,76137.0,76153.0,76172.0,76199.0,76211.0,76224.0,76448.0,76538.0
70,70,77049.75156755766,0.09431040614825317,15.178684544259204,77148.27398270041,-0.06964623173584952,7.643895199855091,77185.70450943676,1.747186572721842,11.18480370169503,77215.65514424328,-0.29931771028022786,6.711150805119419,77491.89932769755,0.4905156197382595,36.66039728384669,0.993003792249109,110.0,79.0,80.0,312.0,392.0,31.0,995.0,1000.0,47.0,24.0,23.0,0.5106382978723404,0.06896586146800948,0.011696285652906509,10.0,5.0,5.0,0.5,0.04790807128269673,0.025926109531897324,27.0,14.0,13.0,0.5185185185185185,1.7080948367615818,0.02623654846100982,13.0,5.0,8.0,0.38461538461538464,0.6100846268374591,0.02613620374723006,88.0,44.0,44.0,0.5,,,,0.0,77034.0,77065.0,77144.0,77153.0,77172.0,77199.0,77211.0,77224.0,77449.0,77536.0
71,71,78049.25151893878,0.08962395398449734,15.061705691388454,78148.75578029093,-0.07495789495545616,7.643896202590939,78185.6823399221,1.7457106146664845,11.191729615453614,78215.41665816477,-0.2916148569554978,6.839601036044363,78491.91902057471,0.49181279630417346,36.55392391212095,0.9930514737396858,102.0,77.0,85.0,311.0,396.0,25.0,996.0,1000.0,34.0,20.0,14.0,0.5882352941176471,0.08408032522843877,0.016900775649580903,12.0,9.0,3.0,0.75,0.06220730056000216,0.01603938419548874,27.0,14.0,13.0,0.5185185185185185,1.7166681221525468,0.015811050034223957,14.0,4.0,10.0,0.2857142857142857,0.641059763283333,0.01564708862051024,91.0,45.0,46.0,0.4945054945054945,,,,0.0,78038.0,78063.0,78140.0,78152.0,78172.0,78199.0,78211.0,78225.0,78449.0,78536.0
72,72,79049.26903985399,0.09318008542656521,15.539301823821766,79149.36277728007,-0.061553117405070676,10.191861603436587,79185.65015301455,1.7387369665193382,11.293473914362572,79215.51115208192,-0.3063525603530242,6.669921465720123,79491.86438462042,0.49539926299988674,36.73807658824044,0.9934146422299213,103.0,75.0,84.0,314.0,398.0,28.0,1001.0,998.0,28.0,12.0,16.0,0.42857142857142855,0.11543652337545658,0.016170392882920492,13.0,9.0,4.0,0.6923076923076923,0.08742107418223807,0.015601543382559153,28.0,14.0,14.0,0.5,1.6789845554196772,0.015465420751262171,13.0,5.0,8.0,0.38461538461538464,0.6141657026377241,0.015301273112985599,90.0,44.0,46.0,0.4888888888888889,,,,0.0,79037.0,79065.0,79140.0,79152.0,79172.0,79200.0,79211.0,79224.0,79448.0,79538.0
73,73,80051.60271279886,0.09394671170997612,14.996471636099999,80149.44595323046,-0.06952729422846875,7.643896202585405,80185.67187306406,1.7415239667825002,11.271031844354834,80215.54686116918,-0.30330491305080126,6.74817277654341,80492.18907880853,0.49576437264227374,36.83569192237745,0.9936782065727362,112.0,79.0,82.0,312.0,394.0,33.0,1006.0,1003.0,35.0,22.0,13.0,0.6285714285714286,0.07724500668296153,0.010722354109962817,11.0,7.0,4.0,0.6363636363636364,0.09108209696368505,0.016402534623111753,27.0,14.0,13.0,0.5185185185185185,1.686141366190034,0.06542898780718814,13.0,5.0,8.0,0.38461538461538464,0.59016636987746,0.03679234983034794,89.0,45.0,44.0,0.5056179775280899,,,,0.0,80030.0,80063.0,80142.0,80153.0,80172.0,80199.0,80211.0,80224.0,80447.0,80536.0
74,74,81049.4960089943,0.09442709673064198,15.006937250869617,81143.84932180027,-0.06407653331958901,5.095930801728113,81185.67074951573,1.751383560437976,11.136741108989963,81215.55553642723,-0.2979058666317979,6.49428544159344,81492.10821917755,0.4929745866728117,36.89348692257635,0.9930888959876474,106.0,76.0,83.0,315.0,398.0,30.0,999.0,999.0,34.0,17.0,17.0,0.5,0.08979723083840112,0.01783296388807298,12.0,3.0,9.0,0.25,0.01343403211830211,0.017210791820959442,27.0,14.0,13.0,0.5185185185185185,1.7167838796815242,0.01717984957840139,13.0,5.0,8.0,0.38461538461538464,0.6151346260855719,0.017168249906785355,93.0,46.0,47.0,0.4946236559139785,,,,0.0,81035.0,81065.0,81141.0,81153.0,81172.0,81199.0,81211.0,81224.0,81449.0,81539.0
75,75,82048.78154216039,0.0912149635849983,14.619825287476763,82149.69864359983,-0.06471381339403594,10.191861353230598,82185.6184033694,1.7375119759886721,11.330645223282735,82215.5423304472,-0.2957889148707805,7.004431039066695,82491.89014144143,0.49170398228276085,36.57826228905817,0.9929649269033762,113.0,79.0,80.0,313.0,393.0,34.0,997.0,999.0,36.0,20.0,16.0,0.5555555555555556,0.09026802481303715,0.019581032557247455,14.0,10.0,4.0,0.7142857142857143,0.10779549554580223,0.020640812123543784,27.0,14.0,13.0,0.5185185185185185,1.680676714395425,0.02091923709798396,14.0,5.0,9.0,0.35714285714285715,0.6096326862725121,0.020679779937420633,91.0,44.0,47.0,0.4835164835164835,,,,0.0,82031.0,82065.0,82144.0,82152.0,82172.0,82199.0,82211.0,82224.0,82448.0,82537.0
76,76,83049.3548656636,0.08970232238585077,15.253720250572908,83148.61418884103,-0.07266496224622297,5.095930801727969,83185.70888903533,1.7443208451216097,11.225155685267834,83215.47048225002,-0.3012905940993826,6.673464643211507,83491.7852927761,0.4937995180347489,36.61298957714245,0.9932203346082406,102.0,76.0,86.0,312.0,398.0,26.0,999.0,1001.0,37.0,15.0,22.0,0.40540540540540543,0.09616979849027915,0.01764318216208189,12.0,10.0,2.0,0.8333333333333334,0.06349069749866268,0.01703153700396175,27.0,14.0,13.0,0.5185185185185185,1.7044962215693173,0.01690763426574231,15.0,5.0,10.0,0.3333333333333333,0.6363491944912627,0.01694947664486497,91.0,45.0,46.0,0.4945054945054945,,,,0.0,83037.0,83063.0,83139.0,83151.0,83172.0,83199.0,83211.0,83225.0,83447.0,83537.0
77,77,84050.75339101351,0.08803135019272643,14.623253105719492,84150.84932136636,-0.07760548958703206,5.095930785352703,84185.7042957629,1.7457982054473504,11.205209244385752,84215.63179911743,-0.2979573483245398,6.82871840950439,84492.06538762678,0.4913790650866261,36.82871620130502,0.9933154747853791,104.0,77.0,83.0,311.0,394.0,27.0,1005.0,1000.0,27.0,13.0,14.0,0.48148148148148145,0.09880552303332567,0.020978653250527075,18.0,14.0,4.0,0.7777777777777778,0.1460141788000345,0.021426268051658596,27.0,14.0,13.0,0.5185185185185185,1.7109294969771605,0.02137415823073091,14.0,5.0,9.0,0.35714285714285715,0.6099972640756546,0.021505517912443164,89.0,44.0,45.0,0.4943820224719101,,,,0.0,84038.0,84065.0,84142.0,84152.0,84172.0,84199.0,84211.0,84225.0,84448.0,84536.0
78,78,85049.67153457798,0.09325467003509319,15.580238114625445,85148.54796540085,-0.05280592696181845,15.287792402090162,85185.607221609,1.745351766696105,11.350097572708385,85215.35368812541,-0.30619577209024174,6.6840848611242105,85492.00554185548,0.49477186401141404,36.783431270555425,0.9931794435882861,102.0,71.0,84.0,314.0,398.0,31.0,994.0,999.0,36.0,17.0,19.0,0.4722222222222222,0.09121155473630965,0.011681038398021345,15.0,9.0,6.0,0.6,0.07384959624550526,0.03308472979922348,27.0,14.0,13.0,0.5185185185185185,1.7084478360210964,0.03296989255411396,14.0,4.0,10.0,0.2857142857142857,0.6316202772991449,0.03215854878510102,91.0,45.0,46.0,0.4945054945054945,,,,0.0,85038.0,85069.0,85140.0,85153.0,85172.0,85199.0,85211.0,85224.0,85447.0,85538.0
79,79,86048.67126990156,0.08847681212100877,15.547219593116875,86146.972626301,-0.05396602832395179,17.83575772480366,86185.596335895,1.742548339629082,11.337902399834586,86215.47079806897,-0.303643143415507,6.800668148007461,86492.02727583324,0.49260129223111204,36.61136722676982,0.992272941444545,104.0,67.0,88.0,311.0,399.0,37.0,995.0,1002.0,44.0,23.0,21.0,0.5227272727272727,0.0768382552088826,0.011288842518137101,20.0,12.0,8.0,0.6,0.03960586167942837,0.03245449047089351,27.0,14.0,13.0,0.5185185185185185,1.697818126891121,0.03592065651375152,14.0,4.0,10.0,0.2857142857142857,0.6379812336187143,0.03711057134282332,90.0,44.0,46.0,0.4888888888888889,,,,0.0,86033.0,86070.0,86137.0,86153.0,86172.0,86199.0,86211.0,86225.0,86448.0,86536.0
80,80,87049.19016585668,0.09115462321199948,14.849954986225,87147.69864360057,-0.06651740037227191,10.191861592989305,87185.6843638431,1.743139291745274,11.258894284900213,87215.39053397713,-0.3018447613161889,6.60168706939575,87492.0919403279,0.4934079726720122,36.65890533095941,0.9930869506548392,108.0,80.0,82.0,313.0,395.0,28.0,1005.0,1000.0,28.0,15.0,13.0,0.5357142857142857,0.10327306013852283,0.018986919605281347,16.0,10.0,6.0,0.625,0.04897203280517969,0.019348350417234924,27.0,14.0,13.0,0.5185185185185185,1.6966072445191773,0.01940010415122012,12.0,3.0,9.0,0.25,0.6738895880959034,0.019607775925184995,90.0,45.0,45.0,0.5,,,,0.0,87034.0,87062.0,87142.0,87154.0,87172.0,87199.0,87212.0,87224.0,87447.0,87537.0
81,81,88049.0273736991,0.09057446245560366,15.468291151989815,88146.69864360057,-0.0575052692851656,10.191861603456227,88185.68577492489,1.7476573526393393,11.225570713447544,88215.45208516387,-0.29980547028298393,6.648389984062925,88492.08518294421,0.4966170662013765,36.470372799444604,0.9927550738179407,110.0,82.0,83.0,314.0,397.0,28.0,1003.0,999.0,37.0,19.0,18.0,0.5135135135135135,0.08529099214025146,0.014611186144916287,13.0,6.0,7.0,0.46153846153846156,0.05178511660967916,0.014611186144916287,27.0,14.0,13.0,0.5185185185185185,1.7168530519122938,0.014611186144916287,14.0,4.0,10.0,0.2857142857142857,0.6292949156214367,0.014611186144916287,92.0,46.0,46.0,0.5,,,,0.0,88031.0,88059.0,88141.0,88153.0,88172.0,88199.0,88211.0,88224.0,88448.0,88538.0
82,82,89049.62687280047,0.08290365862129284,14.573859495274922,89148.12330450071,-0.06262184414248019,12.739823782249875,89185.66620729156,1.7337213459979113,11.392872768580265,89215.34704902412,-0.305713125402115,7.149104794816249,89491.93449302233,0.48918715532733353,36.100058947762754,0.9922899088264012,105.0,77.0,83.0,314.0,397.0,28.0,994.0,999.0,32.0,14.0,18.0,0.4375,0.09059835376369849,0.016846318530025533,12.0,7.0,5.0,0.5833333333333334,0.04112844127310083,0.016136580687686555,27.0,14.0,13.0,0.5185185185185185,1.6807748988034599,0.015945883889872465,13.0,4.0,9.0,0.3076923076923077,0.6615654895729574,0.01601830891986185,92.0,44.0,48.0,0.4782608695652174,,,,0.0,89036.0,89064.0,89141.0,89153.0,89172.0,89199.0,89211.0,89224.0,89448.0,89538.0
83,83,90052.027373699,0.0887570473489347,14.999673204383841,90145.12330450071,-0.05316110487788094,12.739826587723071,90185.62749485196,1.7432633225756415,11.22315705644984,90215.44871597484,-0.30187986943428075,6.561199057993195,90492.13477141797,0.49610764027253657,36.61194501349871,0.9931019242930995,103.0,76.0,86.0,313.0,399.0,27.0,1009.0,1000.0,36.0,20.0,16.0,0.5555555555555556,0.07112398348840429,0.01817011702402749,21.0,10.0,11.0,0.47619047619047616,0.015869035383505516,0.01783887927924682,27.0,14.0,13.0,0.5185185185185185,1.692271791649622,0.017860019484947344,13.0,4.0,9.0,0.3076923076923077,0.6352149932490911,0.017885281734450368,92.0,45.0,47.0,0.4891304347826087,,,,0.0,90035.0,90062.0,90138.0,90148.0,90172.0,90199.0,90211.0,90224.0,90447.0,90537.0
84,84,91050.75339099858,0.09525711959007675,14.30447468768298,91150.06284374,-0.06492682378066891,7.643896202592154,91185.64683788478,1.7452584672473774,11.25060127988363,91215.45205441122,-0.30078747942671563,6.669963771507571,91492.05006005084,0.4927480057933008,37.0905472885216,0.9937519769935929,105.0,75.0,84.0,313.0,397.0,30.0,1000.0,1001.0,32.0,18.0,14.0,0.5625,0.10211389698924284,0.010175525526696328,13.0,10.0,3.0,0.7692307692307693,0.09189331578583532,0.014789112752458625,27.0,14.0,13.0,0.5185185185185185,1.7168936476162395,0.06609213481916384,14.0,4.0,10.0,0.2857142857142857,0.6318422377166499,0.04163904421949712,92.0,47.0,45.0,0.5108695652173914,,,,0.0,91035.0,91065.0,91140.0,91153.0,91172.0,91199.0,91211.0,91224.0,91449.0,91537.0
85,85,92049.43205404871,0.08948909606176288,14.719755791105067,92149.11514424626,-0.054498829827676946,12.739827004300649,92185.62583535395,1.7479462262770433,11.274603957939036,92215.87669549929,-0.30298639947739586,6.6936174331735545,92491.86720596274,0.49616172109907397,36.804444173936574,0.9930294101191949,109.0,79.0,81.0,314.0,395.0,30.0,997.0,1000.0,32.0,18.0,14.0,0.5625,0.09552120858883567,0.018646959073937517,15.0,11.0,4.0,0.7333333333333333,0.08648440051493914,0.01895762601245163,27.0,14.0,13.0,0.5185185185185185,1.707960102294826,0.018638076712356903,12.0,5.0,7.0,0.4166666666666667,0.6066359384500292,0.018996996717512798,92.0,45.0,47.0,0.4891304347826087,,,,0.0,92033.0,92063.0,92142.0,92153.0,92172.0,92199.0,92211.0,92223.0,92448.0,92537.0
86,86,93049.49963487605,0.09478394708911946,15.859429132961532,93148.39728720076,-0.05983580718271384,12.559027720939312,93185.63302562674,1.7433871605073032,11.348644992583818,93215.27142651103,-0.30867585213734033,6.619001925657451,93492.17865813096,0.4963067756979895,36.75163956795673,0.993321961921855,97.0,77.0,88.0,311.0,399.0,20.0,998.0,999.0,35.0,18.0,17.0,0.5142857142857142,0.09518596008167177,0.011913285903585967,18.0,11.0,7.0,0.6111111111111112,0.07053188280356865,0.033057066847658106,27.0,14.0,13.0,0.5185185185185185,1.6855445042592976,0.03454062221547816,14.0,4.0,10.0,0.2857142857142857,0.6470953137789202,0.034195433313024125,91.0,44.0,47.0,0.4835164835164835,,,,0.0,93040.0,93060.0,93137.0,93154.0,93172.0,93199.0,93211.0,93225.0,93449.0,93536.0
87,87,94050.08441751498,0.09530994971693017,14.519612216741898,94149.12330450071,-0.06355465508566674,12.739827002840642,94185.60661886084,1.7377205315179804,11.372280332861179,94215.37931740611,-0.3034868082731909,6.971006783459943,94491.89676766084,0.4903493048884744,36.406637287465806,0.9922504724019786,108.0,73.0,82.0,313.0,395.0,35.0,998.0,1000.0,37.0,17.0,20.0,0.4594594594594595,0.1002699912420256,0.014742082630351809,13.0,7.0,6.0,0.5384615384615384,0.07703584071863126,0.014742082630351809,27.0,14.0,13.0,0.5185185185185185,1.691224013039367,0.014742082630351809,14.0,4.0,10.0,0.2857142857142857,0.6510481245444643,0.014742082630351809,89.0,44.0,45.0,0.4943820224719101,,,,0.0,94034.0,94069.0,94142.0,94155.0,94172.0,94199.0,94211.0,94224.0,94448.0,94537.0
88,88,95050.4247086686,0.08897747285025244,14.559230000479117,95145.42466090013,-0.08285790646810391,2.547965400864043,95185.7052000626,1.7467196181273685,11.106560108921736,95215.75017760138,-0.3044091612282571,6.648882349812175,95492.05508187524,0.4915852669050061,36.34125583793564,0.992464378408965,113.0,77.0,80.0,311.0,391.0,36.0,1000.0,1001.0,36.0,19.0,17.0,0.5277777777777778,0.09213835731902986,0.017547029872931816,9.0,1.0,8.0,0.1111111111111111,0.014856190087851814,0.017091202970071766,27.0,14.0,13.0,0.5185185185185185,1.6761882983768999,0.016926891185351,13.0,5.0,8.0,0.38461538461538464,0.6146661504227845,0.017328064366041115,91.0,44.0,47.0,0.4835164835164835,,,,0.0,95031.0,95067.0,95144.0,95153.0,95172.0,95199.0,95211.0,95224.0,95449.0,95535.0
89,89,96050.32873009844,0.09230113422775005,15.050614132095193,96151.54796540085,-0.0626398126920465,15.287784151719912,96185.53499605152,1.747774584571669,11.433526339991575,96215.24505101418,-0.30384647613057036,6.850606540084538,96491.75684647798,0.4946683326144174,36.88249751529658,0.9932966143723845,106.0,75.0,82.0,314.0,396.0,31.0,1007.0,1000.0,40.0,20.0,20.0,0.5,0.08953392754578518,0.013687163683994532,14.0,11.0,3.0,0.7857142857142857,0.18873800418864842,0.024322022442501583,27.0,14.0,13.0,0.5185185185185185,1.6968683473139332,0.02428498570711309,12.0,4.0,8.0,0.3333333333333333,0.6597551109307884,0.024379357135090155,91.0,45.0,46.0,0.4945054945054945,,,,0.0,96035.0,96066.0,96141.0,96155.0,96172.0,96199.0,96211.0,96223.0,96449.0,96537.0
90,90,97049.65083045972,0.09148159955643642,15.59326341161979,97151.1233045006,-0.057802047669404485,12.73982588322388,97185.59766080185,1.7425091095833325,11.395169212166554,97215.33995605023,-0.30087610561523614,6.906108110584339,97491.95527026322,0.49558294662210256,36.87289370143929,0.9935540295027517,106.0,74.0,87.0,311.0,398.0,32.0,990.0,1001.0,32.0,18.0,14.0,0.5625,0.09489971255037981,0.011504580141108195,18.0,14.0,4.0,0.7777777777777778,0.14943094189441908,0.03124504567571868,27.0,14.0,13.0,0.5185185185185185,1.6977007901410661,0.05000901402462971,14.0,4.0,10.0,0.2857142857142857,0.6400299782286476,0.039553301827125124,91.0,45.0,46.0,0.4945054945054945,,,,0.0,97032.0,97064.0,97138.0,97154.0,97172.0,97199.0,97211.0,97225.0,97449.0,97536.0
91,91,98049.78643406168,0.0946355319392922,14.348363634119098,98148.54796540085,-0.0563355833666179,14.797746721568194,98185.59256794813,1.7424388606672825,11.36899039511453,98215.45203459915,-0.3088582088773528,6.929216729972241,98491.92103460532,0.49780996894558727,36.435016476221115,0.9937353675758022,106.0,77.0,84.0,312.0,396.0,29.0,1003.0,998.0,34.0,21.0,13.0,0.6176470588235294,0.07369933629066217,0.010704313942340837,15.0,9.0,6.0,0.6,0.06647467970672319,0.03238942286906312,27.0,14.0,13.0,0.5185185185185185,1.6868826833617576,0.041058182016381665,14.0,4.0,10.0,0.2857142857142857,0.6622343650812965,0.04002426535050007,91.0,45.0,46.0,0.4945054945054945,,,,0.0,98034.0,98063.0,98140.0,98155.0,98172.0,98199.0,98211.0,98224.0,98447.0,98536.0
92,92,99049.99012814174,0.10319757232701325,12.739827004320285,99150.5753900817,-0.08427396785025792,2.5479654008640567,99185.70868232595,1.7466826646017397,11.182982861837054,99215.60359118937,-0.301373514610525,6.641339500781837,99492.13365792698,0.497686672294793,36.98811729247541,0.9934901285056468,96.0,77.0,83.0,313.0,396.0,19.0,1002.0,1001.0,19.0,5.0,14.0,0.2631578947368421,0.11485236358526635,0.019375561124676775,11.0,10.0,1.0,0.9090909090909091,0.13258802054731184,0.019837582977682282,27.0,14.0,13.0,0.5185185185185185,1.6950531903664139,0.019630203004566284,13.0,5.0,8.0,0.38461538461538464,0.6119119191336119,0.019589743743858818,92.0,45.0,47.0,0.4891304347826087,,,,0.0,99045.0,99064.0,99141.0,99152.0,99172.0,99199.0,99211.0,99224.0,99447.0,99537.0
93,93,100049.10924705362,0.08881497458038184,14.980065752652646,100149.12330450071,-0.06460918679066074,12.739826978272314,100185.6070581903,1.7362986478006803,11.324617666604588,100215.49266946346,-0.295526268838531,7.056274503291248,100491.79033019488,0.49245951296400975,36.445851386652706,0.9929995610475321,110.0,77.0,83.0,311.0,394.0,33.0,1001.0,1000.0,34.0,18.0,16.0,0.5294117647058824,0.09545164394676756,0.01277095047628673,12.0,7.0,5.0,0.5833333333333334,0.07754400493725269,0.02724774499938617,27.0,14.0,13.0,0.5185185185185185,1.682963263961275,0.025828537183924753,14.0,4.0,10.0,0.2857142857142857,0.6169576770634053,0.025298185267492543,91.0,46.0,45.0,0.5054945054945055,,,,0.0,100032.0,100065.0,100142.0,100154.0,100172.0,100199.0,100211.0,100225.0,100446.0,100536.0
94,94,101049.24039754031,0.10057327289390335,14.71003222304141,101150.54796540065,-0.06293437362412435,10.101978463136852,101185.64050227523,1.7408506244799224,11.390261749048193,101215.35495039633,-0.2991646927558624,6.744315845112708,101491.97445177687,0.4991932475144801,36.975243958679805,0.9937883566804202,105.0,79.0,83.0,313.0,396.0,26.0,998.0,1000.0,26.0,12.0,14.0,0.46153846153846156,0.10135750709980201,0.01092811894760507,17.0,13.0,4.0,0.7647058823529411,0.14476648886290583,0.013367268592700371,27.0,14.0,13.0,0.5185185185185185,1.7028102660467352,0.05721699246080003,14.0,4.0,10.0,0.2857142857142857,0.6421628861082227,0.036367192068120426,91.0,45.0,46.0,0.4945054945054945,,,,0.0,101037.0,101063.0,101142.0,101154.0,101172.0,101199.0,101211.0,101225.0,101448.0,101538.0
95,95,102049.34539902254,0.08681537865538855,14.429249592896218,102145.84932180027,-0.07933932603447258,5.09593080172452,102185.69056154242,1.7452861392820276,11.093748820145958,102215.56870390767,-0.3053313917940388,6.5934812837602195,102491.99744416833,0.48906118655013836,36.22354645889025,0.9923299355481079,108.0,78.0,81.0,311.0,392.0,30.0,1000.0,1000.0,30.0,14.0,16.0,0.4666666666666667,0.0902595996375729,0.010328225575002228,19.0,11.0,8.0,0.5789473684210527,0.028533276485762926,0.014085276971644495,27.0,14.0,13.0,0.5185185185185185,1.6888246211122495,0.06339985138477926,13.0,5.0,8.0,0.38461538461538464,0.5981193593647354,0.03869075064873697,88.0,43.0,45.0,0.48863636363636365,,,,0.0,102035.0,102065.0,102143.0,102148.0,102172.0,102199.0,102211.0,102224.0,102449.0,102535.0
96,96,103047.82194810128,0.08700414475492453,14.403132135732234,103149.54796540075,-0.06156698899648413,15.287790204004665,103185.61557361805,1.7350414177243474,11.420586170994392,103215.30125673312,-0.3085521546393448,7.030308453740365,103491.8930597536,0.4916321505019065,36.00866654301965,0.992122470945012,106.0,79.0,84.0,310.0,394.0,27.0,995.0,1000.0,28.0,13.0,15.0,0.4642857142857143,0.0886847641452535,0.012441948955973978,16.0,13.0,3.0,0.8125,0.09779336200845057,0.03226748477006246,27.0,14.0,13.0,0.5185185185185185,1.6644465833228295,0.062196593083432394,14.0,4.0,10.0,0.2857142857142857,0.6360132124333497,0.04112900547458301,89.0,44.0,45.0,0.4943820224719101,,,,0.0,103035.0,103062.0,103141.0,103153.0,103172.0,103199.0,103211.0,103225.0,103448.0,103535.0
97,97,104050.10818500252,0.09382117065580603,14.717577927390186,104150.69864360045,-0.06526155440504165,10.19186155668765,104185.66465861067,1.7386994633063604,11.394951222672137,104215.15200680743,-0.30316961096878176,6.9189036236783865,104491.87200675414,0.4949649172356682,36.74132181479659,0.9932747544949894,103.0,81.0,83.0,313.0,396.0,22.0,1007.0,999.0,29.0,14.0,15.0,0.4827586206896552,0.09279904070765106,0.01230684787583489,16.0,14.0,2.0,0.875,0.1376135397435131,0.025311693994040648,28.0,14.0,14.0,0.5,1.6815052649379487,0.025242510990069415,13.0,4.0,9.0,0.3076923076923077,0.6472789871648874,0.025555201884622496,91.0,45.0,46.0,0.4945054945054945,,,,0.0,104038.0,104060.0,104141.0,104153.0,104172.0,104199.0,104211.0,104224.0,104447.0,104537.0
98,98,105049.42593285568,0.09541763682987753,15.214763495293123,105150.30626488166,-0.062246831988285393,9.947200155883664,105185.65396942935,1.7448338669102472,11.305850690326855,105215.52285772639,-0.2931915221507522,6.834558827423025,105492.05661839318,0.49823082826736664,36.843174140293925,0.9938018324333338,105.0,75.0,85.0,310.0,395.0,30.0,999.0,1002.0,35.0,19.0,16.0,0.5428571428571428,0.09530837911234816,0.013580805839743202,15.0,10.0,5.0,0.6666666666666666,0.12315900344325062,0.03033790759716793,27.0,14.0,13.0,0.5185185185185185,1.7157669303798482,0.06651660730202462,14.0,5.0,9.0,0.35714285714285715,0.588541315945046,0.04269280161133836,92.0,46.0,46.0,0.5,,,,0.0,105035.0,105065.0,105140.0,105155.0,105172.0,105199.0,105211.0,105225.0,105450.0,105535.0
99,99,106049.4892788396,0.09364119705063217,15.55305526449275,106147.12330450071,-0.06019587871634826,12.739825972332529,106185.6613362562,1.743030792755614,11.371077668680984,106215.29471395533,-0.3005784293068404,6.889566935885585,106491.87528924271,0.49680274355939,36.76790147510733,0.9936491987690128,109.0,78.0,84.0,313.0,397.0,31.0,995.0,999.0,31.0,18.0,13.0,0.5806451612903226,0.1017127575448778,0.017595491504244082,14.0,8.0,6.0,0.5714285714285714,0.021894515966097962,0.017354001197140645,27.0,14.0,13.0,0.5185185185185185,1.7039225480676576,0.017404850789914217,13.0,4.0,9.0,0.3076923076923077,0.6484085417267429,0.017229009832793993,94.0,47.0,47.0,0.5,,,,0.0,106031.0,106062.0,106140.0,106153.0,106172.0,106199.0,106211.0,106224.0,106446.0,106537.0
100,100,107049.12978696151,0.08971594415959593,14.737107310435366,107149.1233045007,-0.06244126631452885,12.739826685505703,107185.63617994648,1.7439451022935368,11.29792679711264,107215.36045534603,-0.3039813694358784,6.704068318145978,107492.14005905879,0.4928910535653218,36.402683509129076,0.9924457356024169,111.0,78.0,83.0,312.0,395.0,33.0,1007.0,999.0,39.0,19.0,20.0,0.48717948717948717,0.07297646449042977,0.019323798886210733,16.0,10.0,6.0,0.625,0.0770793692106339,0.019375975030758753,27.0,14.0,13.0,0.5185185185185185,1.6794320078114877,0.019076598028811724,13.0,4.0,9.0,0.3076923076923077,0.6676305401316579,0.019016572991625628,88.0,44.0,44.0,0.5,,,,0.0,107030.0,107063.0,107141.0,107152.0,107172.0,107199.0,107211.0,107224.0,107448.0,107536.0
101,101,108051.17805189872,0.08929612591063951,15.683560103622481,108148.76412261084,-0.07946855469273366,5.095930801728113,108185.69431573949,1.7485129408928903,11.193829597877148,108215.44945628569,-0.3025768512163075,6.835023990955048,108492.072093006,0.49397137943075153,36.56336329188193,0.9932309741719625,113.0,82.0,78.0,313.0,391.0,31.0,1003.0,1001.0,31.0,18.0,13.0,0.5806451612903226,0.08891539577461638,0.019272930966732865,13.0,8.0,5.0,0.6153846153846154,0.064986542974657,0.019438924536193593,27.0,14.0,13.0,0.5185185185185185,1.7083452478909367,0.019241572224185467,14.0,4.0,10.0,0.2857142857142857,0.6457051802340609,0.019175704280577112,95.0,47.0,48.0,0.49473684210526314,,,,0.0,108033.0,108064.0,108146.0,108151.0,108172.0,108199.0,108211.0,108224.0,108448.0,108537.0
102,102,109056.027373699,0.08003457584068123,16.44318601732396,109144.84932180027,-0.07049723893457395,5.095930801728113,109185.66862375767,1.750053746937895,11.11306939069326,109215.75176239882,-0.2955687180517264,6.520313051544536,109492.00310389714,0.4939254395471198,36.656615331029634,0.9927694009575456,110.0,76.0,82.0,313.0,395.0,34.0,1004.0,1000.0,34.0,24.0,10.0,0.7058823529411765,0.05893835017984262,0.009924392134485413,14.0,6.0,8.0,0.42857142857142855,0.00524502807281782,0.028050843046786556,27.0,14.0,13.0,0.5185185185185185,1.6949376200609394,0.05000353090326363,13.0,5.0,8.0,0.38461538461538464,0.6127507668527193,0.03914120190310871,91.0,46.0,45.0,0.5054945054945055,,,,0.0,109032.0,109066.0,109142.0,109153.0,109172.0,109199.0,109211.0,109224.0,109446.0,109537.0
103,103,110050.75339099858,0.09220837247659876,15.434091204837156,110148.69864360057,-0.06122344140904454,10.191861600579864,110185.64508241233,1.741908765544067,11.29608456912928,110215.41922930759,-0.29393472407621557,6.799542138161483,110491.82136262929,0.4958999484853888,36.864236224941,0.9934280864044231,108.0,76.0,83.0,312.0,395.0,32.0,996.0,1000.0,36.0,20.0,16.0,0.5555555555555556,0.08019001644402932,0.01322842214045925,19.0,13.0,6.0,0.6842105263157895,0.10023338652808292,0.019655961192303877,27.0,14.0,13.0,0.5185185185185185,1.6968333706490961,0.0719735117826173,13.0,4.0,9.0,0.3076923076923077,0.6252677996920023,0.04226877107773841,91.0,46.0,45.0,0.5054945054945055,,,,0.0,110033.0,110065.0,110141.0,110151.0,110172.0,110199.0,110211.0,110224.0,110448.0,110536.0
104,104,111049.24752853568,0.09577622130797912,14.901890137778052,111148.12330450071,-0.052139951390102995,12.739826997712706,111185.64217305003,1.7469126215789939,11.290792725061195,111215.32962009533,-0.3039786253630135,6.751030005568066,111491.7987153189,0.49781432912775697,36.832932722812444,0.9934996560099049,103.0,74.0,83.0,314.0,397.0,29.0,991.0,1000.0,35.0,18.0,17.0,0.5142857142857142,0.0956359886741624,0.019634923409255826,11.0,8.0,3.0,0.7272727272727273,0.04384128382035819,0.019549123096909017,27.0,14.0,13.0,0.5185185185185185,1.7000455510322927,0.019537551810770586,12.0,4.0,8.0,0.3333333333333333,0.6523254156904837,0.019398309235409885,94.0,47.0,47.0,0.5,,,,0.0,111037.0,111066.0,111140.0,111151.0,111172.0,111199.0,111211.0,111223.0,111447.0,111537.0
105,105,112040.84932180027,0.10040497970131378,5.095930801728113,112149.5470852849,-0.07087746452868225,7.643896202591807,112185.71235244253,1.743607445429655,11.290681756811512,112215.40337665069,-0.2999375699156493,6.862056681377998,112491.96869573624,0.4934332525915605,36.4775753786768,0.9900842809911032,102.0,78.0,84.0,312.0,396.0,24.0,994.0,1000.0,41.0,13.0,28.0,0.3170731707317073,0.10926016244590289,0.019609222232015607,13.0,10.0,3.0,0.7692307692307693,0.09261530529566439,0.019741823463871443,27.0,14.0,13.0,0.5185185185185185,1.7015573459894657,0.01980515247561955,13.0,4.0,9.0,0.3076923076923077,0.6564310221102576,0.01979231036140543,91.0,46.0,45.0,0.5054945054945055,,,,0.0,112038.0,112062.0,112140.0,112153.0,112172.0,112199.0,112211.0,112224.0,112447.0,112536.0
106,106,113049.59284093401,0.09387254098494159,15.390238192333834,113149.27398270041,-0.06820434794177851,7.643896162577427,113185.68266972149,1.745969538527645,11.248450983023073,113215.50952838709,-0.2958425429603499,6.958025363961363,113492.02284135368,0.4960714464974206,36.88971348527162,0.993322786623583,107.0,81.0,83.0,311.0,394.0,26.0,1008.0,999.0,38.0,19.0,19.0,0.5,0.09719400505879258,,10.0,8.0,2.0,0.8,0.0642070337128883,,27.0,14.0,13.0,0.5185185185185185,1.7001901911519177,,13.0,5.0,8.0,0.38461538461538464,0.6180491466072516,,92.0,46.0,46.0,0.5,,,,0.0,113034.0,113060.0,113141.0,113151.0,113172.0,113199.0,113211.0,113224.0,113449.0,113535.0
107,107,114054.60271279886,0.09293280954093136,15.4604025532272,114146.84932180014,-0.07092637580347645,5.095930801712758,114185.68941538586,1.7437193835951468,11.20026412109318,114215.63322761907,-0.30014882704767193,6.62874333551412,114492.03811928556,0.49504029543293326,36.9396584753853,0.9935105369258921,110.0,75.0,83.0,313.0,396.0,35.0,1010.0,1000.0,39.0,24.0,15.0,0.6153846153846154,0.05740633535763316,0.009598488674611954,19.0,11.0,8.0,0.5789473684210527,0.035253353621837145,0.015464980261071803,27.0,14.0,13.0,0.5185185185185185,1.6824595182714022,0.07057968881102206,14.0,5.0,9.0,0.35714285714285715,0.5745852328843241,0.04364521448533682,89.0,44.0,45.0,0.4943820224719101,,,,0.0,114031.0,114066.0,114141.0,114148.0,114172.0,114199.0,114211.0,114224.0,114448.0,114537.0
108,108,115049.39147238454,0.09024438660481839,15.007132183317937,115148.12330450058,-0.06244364741262853,12.73981711662934,115185.68142847036,1.7364392139979226,11.358005432624395,115215.21888515343,-0.3006141109488416,7.009881456369094,115492.08479817855,0.4914934899742102,36.53535957714214,0.9924237546553074,109.0,76.0,82.0,314.0,396.0,33.0,990.0,1001.0,33.0,17.0,16.0,0.5151515151515151,0.09298046896260848,0.018291200988941547,12.0,7.0,5.0,0.5833333333333334,0.05618904663302077,0.01872796031375564,27.0,14.0,13.0,0.5185185185185185,1.6988563346997787,0.01875339082415715,13.0,4.0,9.0,0.3076923076923077,0.6481964951896668,0.01891438048175165,90.0,45.0,45.0,0.5,,,,0.0,115032.0,115065.0,115141.0,115153.0,115172.0,115199.0,115211.0,115223.0,115449.0,115537.0
109,109,116050.38382349712,0.09374325985697317,14.243785299864614,116147.84932179884,-0.07398804517187849,5.095930705578492,116185.64945493838,1.7455812632691705,11.15205916096335,116215.57545933871,-0.29293127693684073,6.68637420551493,116491.8351700408,0.4929091151592906,36.78584457137793,0.9931491541576715,103.0,76.0,82.0,312.0,394.0,27.0,1000.0,999.0,27.0,11.0,16.0,0.4074074074074074,0.10892356987513276,0.011514540311766044,12.0,6.0,6.0,0.5,0.04759706363705561,0.0348365461339167,27.0,14.0,13.0,0.5185185185185185,1.6810678230463139,0.034930375969109737,13.0,5.0,8.0,0.38461538461538464,0.5937219851700246,0.03449466245037573,92.0,47.0,45.0,0.5108695652173914,,,,0.0,116039.0,116066.0,116142.0,116149.0,116172.0,116199.0,116211.0,116224.0,116447.0,116536.0
110,110,117049.35057323673,0.09265752967673206,13.859023004781404,117143.84932180027,-0.07213055457944878,5.095930720255326,117185.69231378645,1.7495108466567348,11.105556965289992,117215.52761685966,-0.2990801810994711,6.745633791506697,117492.1507912729,0.4928268855668677,36.45697446423744,0.992826271792287,109.0,78.0,83.0,314.0,397.0,31.0,1001.0,1000.0,31.0,17.0,14.0,0.5483870967741935,0.10428619009124397,0.010652405301343934,12.0,3.0,9.0,0.25,0.012055787468562704,0.026352246987037083,27.0,14.0,13.0,0.5185185185185185,1.6998990517649746,0.02642786604566153,13.0,5.0,8.0,0.38461538461538464,0.6263455123484271,0.02624210087926647,91.0,45.0,46.0,0.4945054945054945,,,,0.0,117032.0,117063.0,117141.0,117153.0,117172.0,117199.0,117211.0,117224.0,117449.0,117538.0
111,111,118049.70783997522,0.09426053588242185,14.454927544337579,118149.54796540085,-0.057763492795173246,15.287790676030173,118185.60883890944,1.7421059652887632,11.391497307814305,118215.35881514128,-0.3011495193553062,7.062114108898238,118491.77475057641,0.4932337510204926,36.434837003876034,0.9925843086193034,108.0,77.0,84.0,313.0,397.0,31.0,1001.0,1001.0,31.0,17.0,14.0,0.5483870967741935,0.10007042207252297,0.011212972763021392,13.0,9.0,4.0,0.6923076923076923,0.09890035423424733,0.013748383867026532,27.0,14.0,13.0,0.5185185185185185,1.7006492885119107,0.06382177123586569,15.0,4.0,11.0,0.26666666666666666,0.6266249235884888,0.040534120829070076,93.0,46.0,47.0,0.4946236559139785,,,,0.0,118033.0,118064.0,118141.0,118154.0,118172.0,118199.0,118211.0,118225.0,118447.0,118538.0
112,112,119049.75339099858,0.0945877025134301,15.116537331926887,119149.150694629,-0.07323225418016545,5.095930801728113,119185.73889984853,1.74711020222554,11.233924604599277,119215.30271624676,-0.30025826697759656,6.817408260368448,119491.73639664137,0.4921525051271519,36.70987441100337,0.9931207934223985,98.0,72.0,88.0,313.0,401.0,26.0,1004.0,1001.0,26.0,12.0,14.0,0.46153846153846156,0.09298790413142477,0.011111995242692067,16.0,13.0,3.0,0.8125,0.09057728077803122,0.03522335482474238,28.0,14.0,14.0,0.5,1.6836885718853503,0.03644444499423569,14.0,4.0,10.0,0.2857142857142857,0.649407083230036,0.03644456936325241,93.0,48.0,45.0,0.5161290322580645,,,,0.0,119038.0,119064.0,119136.0,119152.0,119172.0,119199.0,119211.0,119224.0,119447.0,119537.0
113,113,120049.42403091365,0.09135252990364681,15.55925320923195,120150.1233045007,-0.06287908798189808,12.739826884012171,120185.5871812619,1.742872571801895,11.356947603112063,120215.37977008747,-0.30311594925099705,6.8380361730253245,120491.93285097729,0.4954138741873862,36.5711632801095,0.9928876810161396,106.0,71.0,87.0,310.0,397.0,35.0,1000.0,999.0,38.0,20.0,18.0,0.5263157894736842,0.08226005036342239,0.02036857553638071,15.0,12.0,3.0,0.8,0.12208831656540431,0.0210575089086825,27.0,14.0,13.0,0.5185185185185185,1.7086714860940064,0.021038646058610968,14.0,4.0,10.0,0.2857142857142857,0.6478245089497594,0.021231358531681736,87.0,44.0,43.0,0.5057471264367817,,,,0.0,120032.0,120067.0,120138.0,120153.0,120172.0,120199.0,120211.0,120225.0,120448.0,120535.0
114,114,121050.03200079387,0.09627967040486077,15.221918053916937,121148.12330450071,-0.056019249347659957,12.739826992360532,121185.60549962672,1.7444808442151585,11.332381414029426,121215.35364772873,-0.2935667070499966,6.784289696791932,121491.76919167144,0.49571001914613677,36.94181136528726,0.9935851290730755,108.0,76.0,83.0,312.0,395.0,32.0,998.0,1000.0,36.0,21.0,15.0,0.5833333333333334,0.07409637251391063,0.012839862529837001,14.0,8.0,6.0,0.5714285714285714,0.06721646612811827,0.018328079729000676,27.0,14.0,13.0,0.5185185185185185,1.683469272158525,0.07026330038516723,13.0,4.0,9.0,0.3076923076923077,0.6285582482008898,0.04299856599180617,91.0,45.0,46.0,0.4945054945054945,,,,0.0,121033.0,121065.0,121141.0,121151.0,121172.0,121199.0,121211.0,121224.0,121448.0,121536.0
115,115,122050.21696726615,0.09242381543843263,15.276532789119749,122148.69864359937,-0.06606253851993305,10.19185063043261,122185.64697144437,1.7402195191437144,11.277626702523309,122215.36263029434,-0.3070889555430223,6.724733894585949,122491.95870247854,0.49266497223277533,36.42811644539308,0.992963161600353,107.0,77.0,82.0,313.0,395.0,30.0,995.0,999.0,38.0,20.0,18.0,0.5263157894736842,0.0931156017584303,0.02073688507053859,19.0,13.0,6.0,0.6842105263157895,0.08709074315183811,0.021310655000140444,27.0,14.0,13.0,0.5185185185185185,1.7076214069361342,0.021549660784849985,14.0,4.0,10.0,0.2857142857142857,0.6323900280398781,0.021803260645558993,90.0,45.0,45.0,0.5,,,,0.0,122035.0,122065.0,122142.0,122151.0,122172.0,122199.0,122211.0,122224.0,122447.0,122537.0
116,116,123050.22672012502,0.09242919480057016,14.340911317752004,123146.69864360057,-0.06161272919841845,10.191861521488098,123185.6844991516,1.7409532088465152,11.236178718342641,123215.36866244853,-0.3020849148968412,6.649912584782865,123491.82341104031,0.49441967146267907,36.52749418165298,0.993003540908716,101.0,74.0,84.0,314.0,398.0,27.0,1001.0,1001.0,41.0,21.0,20.0,0.5121951219512195,0.0805914768883048,0.01723560303088327,16.0,9.0,7.0,0.5625,0.02358425755283374,0.016784332718841256,27.0,14.0,13.0,0.5185185185185185,1.697669357032257,0.016905291938944515,14.0,4.0,10.0,0.2857142857142857,0.6431950562680504,0.016817582687449338,92.0,44.0,48.0,0.4782608695652174,,,,0.0,123039.0,123066.0,123140.0,123149.0,123172.0,123199.0,123211.0,123224.0,123448.0,123538.0
117,117,124049.63595036088,0.0898548512662532,14.506233066274618,124149.54796540085,-0.05973448737031136,13.469104395758952,124185.58250195067,1.7398335055095417,11.342763394222038,124215.45048980627,-0.30097020366304444,6.791441486505902,124491.97019436694,0.49421527474429633,36.8019759903893,0.9932660946465687,100.0,75.0,83.0,313.0,396.0,25.0,1000.0,1000.0,25.0,9.0,16.0,0.36,0.08625020670142294,0.017332730009328105,14.0,11.0,3.0,0.7857142857142857,0.11466654093619771,0.016877159293899262,27.0,14.0,13.0,0.5185185185185185,1.693374327641447,0.01689101870553524,14.0,4.0,10.0,0.2857142857142857,0.6227542685754608,0.01690338569030073,92.0,46.0,46.0,0.5,,,,0.0,124041.0,124066.0,124141.0,124153.0,124172.0,124199.0,124211.0,124224.0,124446.0,124537.0
118,118,125049.91319888139,0.08967871710305131,15.428987446573505,125149.06762596565,-0.072480714437672,7.643896202592163,125185.70242752419,1.7424964966440553,11.33020823645503,125215.5587545561,-0.3090646302209412,6.715514583505345,125492.24761051938,0.49592240740580873,36.772332331444844,0.9935871681748174,106.0,75.0,86.0,313.0,399.0,31.0,1005.0,1000.0,34.0,18.0,16.0,0.5294117647058824,0.06941880867300351,0.013604374122494892,14.0,11.0,3.0,0.7857142857142857,0.060740460939209685,0.011121057435396863,27.0,14.0,13.0,0.5185185185185185,1.689517457421297,0.037811450818270774,13.0,5.0,8.0,0.38461538461538464,0.6083930143902572,0.028940960946633416,91.0,45.0,46.0,0.4945054945054945,,,,0.0,125032.0,125063.0,125138.0,125152.0,125172.0,125199.0,125211.0,125224.0,125447.0,125537.0
119,119,126049.9657630365,0.09072707580371128,14.806051387220217,126151.12330450049,-0.061481390298519796,12.739826998378527,126185.61115695276,1.73970043109023,11.374178457766876,126215.34242836777,-0.3007617581740581,6.98284788665762,126492.17637354946,0.4880902739868278,36.47053509240274,0.9924119642942025,110.0,79.0,81.0,313.0,394.0,31.0,997.0,1000.0,31.0,17.0,14.0,0.5483870967741935,0.10126549286496957,0.010567917532518116,15.0,12.0,3.0,0.8,0.15967135563774987,0.03290712404965601,27.0,14.0,13.0,0.5185185185185185,1.7050120687215309,0.056606223980052404,15.0,4.0,11.0,0.26666666666666666,0.63881298789269,0.03907562214944186,90.0,45.0,45.0,0.5,,,,0.0,126033.0,126064.0,126143.0,126154.0,126172.0,126199.0,126211.0,126224.0,126449.0,126537.0
120,120,127049.6518891121,0.09456604899967035,14.288628765039658,127149.8493144802,-0.08300928745405654,5.095930801728113,127185.67571017645,1.7518702605070766,11.163543762071047,127215.52578241561,-0.29291371520932535,6.636098185877311,127491.84043082685,0.49307036986958475,36.774397946656684,0.9934192214119933,110.0,76.0,82.0,314.0,396.0,34.0,1004.0,1001.0,36.0,18.0,18.0,0.5,0.09545686046619145,0.019686993526709676,14.0,11.0,3.0,0.7857142857142857,0.10909350566057975,0.019562895281403207,27.0,14.0,13.0,0.5185185185185185,1.6870994009547304,0.019437792734219334,13.0,5.0,8.0,0.38461538461538464,0.6128575359573405,0.01956545121206972,91.0,45.0,46.0,0.4945054945054945,,,,0.0,127032.0,127066.0,127142.0,127151.0,127172.0,127199.0,127211.0,127224.0,127447.0,127538.0
121,121,128050.60271279886,0.09027743228936584,14.745000301357601,128149.54796540085,-0.06178225108556741,15.2877923948092,128185.59031752382,1.7388282026709192,11.38895390158173,128215.45203459915,-0.30187498833926646,6.985602075294251,128491.90530475939,0.4931995532154216,36.56608297772378,0.9928115077312022,104.0,78.0,84.0,314.0,398.0,26.0,1000.0,998.0,37.0,18.0,19.0,0.4864864864864865,0.08182606250930516,0.015146539577037797,17.0,12.0,5.0,0.7058823529411765,0.12700545095935079,0.014754448640682498,27.0,14.0,13.0,0.5185185185185185,1.687103895692982,0.014584330030949895,13.0,4.0,9.0,0.3076923076923077,0.6290832570224302,0.014556182442261149,94.0,47.0,47.0,0.5,,,,0.0,128036.0,128062.0,128140.0,128153.0,128172.0,128199.0,128211.0,128224.0,128446.0,128538.0
122,122,129049.40501868523,0.09427519132300205,15.417500116829281,129150.66096254309,-0.06061168930920212,10.191861603429498,129185.6110309491,1.7415737082608267,11.352368275213083,129215.53033578009,-0.3006568866790526,6.807410138650269,129491.90052869129,0.49942760684062415,36.94100451867419,0.9936067607267332,108.0,81.0,83.0,313.0,396.0,27.0,995.0,1001.0,27.0,16.0,11.0,0.5925925925925926,0.1085149481064289,0.015097217402709135,16.0,13.0,3.0,0.8125,0.14834752552398914,0.013143817000908466,27.0,14.0,13.0,0.5185185185185185,1.7113505580331225,0.03514228155276038,14.0,5.0,9.0,0.35714285714285715,0.6170552828054292,0.02790672444281054,90.0,45.0,45.0,0.5,,,,0.0,129033.0,129060.0,129141.0,129154.0,129172.0,129199.0,129211.0,129224.0,129447.0,129537.0
123,123,130049.74676672938,0.09008751750029077,14.530928393745052,130148.97630509929,-0.060713274064952145,12.739827004083129,130185.647202741,1.7398592067009588,11.323045176113801,130215.49938441908,-0.29538416623398606,6.888644637872272,130491.93660091734,0.49405187523893124,36.52118407321429,0.9932316493279438,110.0,77.0,82.0,310.0,392.0,33.0,1002.0,999.0,38.0,20.0,18.0,0.5263157894736842,0.07331882443688138,0.017628151662641554,12.0,7.0,5.0,0.5833333333333334,0.0950781202303426,0.017517813250234153,27.0,14.0,13.0,0.5185185185185185,1.695742745751048,0.017290142117617275,13.0,4.0,9.0,0.3076923076923077,0.6337665248117561,0.017577109528902894,83.0,41.0,42.0,0.4939759036144578,,,,0.0,130032.0,130065.0,130142.0,130154.0,130172.0,130199.0,130211.0,130224.0,130451.0,130534.0
124,124,131050.5863643844,0.0861098273018981,14.64291517203011,131150.50395347248,-0.06114691676462451,15.287792404746646,131185.55825231381,1.7376568449147631,11.372048727216294,131215.53011154954,-0.30906610513925403,6.8479954353609305,131492.044351466,0.4884600235600816,36.1703612318419,0.9920587584524528,104.0,72.0,84.0,312.0,396.0,32.0,1002.0,1000.0,44.0,23.0,21.0,0.5227272727272727,0.08342523891130538,0.01823783435726392,21.0,17.0,4.0,0.8095238095238095,0.14260896793204728,0.017879983282673442,27.0,14.0,13.0,0.5185185185185185,1.6805809307336552,0.01805122346739265,13.0,5.0,8.0,0.38461538461538464,0.6156901029411491,0.018319994279054452,91.0,45.0,46.0,0.4945054945054945,,,,0.0,131036.0,131068.0,131140.0,131154.0,131172.0,131199.0,131211.0,131224.0,131447.0,131536.0
125,125,132049.8110325547,0.09275582415351762,15.219715781372205,132148.69864360054,-0.0652871837245224,10.191861199691017,132185.66019750573,1.7468447183624056,11.271667064423465,132215.40936638313,-0.2987145315071938,6.840852064316035,132492.00432783418,0.49618055395662186,36.73961394001419,0.9934536328419115,106.0,78.0,81.0,312.0,393.0,28.0,994.0,1002.0,36.0,19.0,17.0,0.5277777777777778,0.07558593425954921,0.02050171774158155,16.0,10.0,6.0,0.625,0.08385084128032752,0.0204014706651771,27.0,14.0,13.0,0.5185185185185185,1.6893654958963245,0.020194536359676288,14.0,4.0,10.0,0.2857142857142857,0.646482664502422,0.020364149674560118,89.0,45.0,44.0,0.5056179775280899,,,,0.0,132037.0,132065.0,132143.0,132153.0,132172.0,132199.0,132211.0,132224.0,132447.0,132536.0
126,126,133049.32873009844,0.09283487110389482,14.670723023255137,133148.97262630097,-0.05065975651072714,17.835757776989976,133185.61735278883,1.748343044521925,11.40683377460683,133215.32679582963,-0.29716601290049377,7.201880049088737,133492.1697167325,0.49591330223215396,36.54215091124986,0.9933995433140328,105.0,74.0,86.0,313.0,399.0,31.0,1007.0,999.0,31.0,15.0,16.0,0.4838709677419355,0.10707360645932598,0.011678508353733076,14.0,10.0,4.0,0.7142857142857143,0.08620496344551207,0.035271545445351875,27.0,14.0,13.0,0.5185185185185185,1.6969660509467126,0.035872933567158045,14.0,4.0,10.0,0.2857142857142857,0.653023919079726,0.03551686439607473,89.0,43.0,46.0,0.48314606741573035,,,,0.0,133034.0,133065.0,133139.0,133153.0,133172.0,133199.0,133211.0,133225.0,133449.0,133538.0
127,127,134050.12040448925,0.09516030275157386,15.129604172706031,134146.54796540082,-0.052466936412113516,15.287787206292291,134185.6601170463,1.7419890509887284,11.369082945505882,134215.3391911355,-0.3015389624145697,6.954932978732551,134492.08490199703,0.49877921308528955,36.59096526744691,0.9933287171404466,103.0,73.0,87.0,310.0,397.0,30.0,998.0,999.0,34.0,15.0,19.0,0.4411764705882353,0.09883313474940116,0.01779100344787731,19.0,11.0,8.0,0.5789473684210527,0.04578973825537917,0.01790785048370824,27.0,14.0,13.0,0.5185185185185185,1.6930028542967341,0.01795185370526271,14.0,4.0,10.0,0.2857142857142857,0.6390005625068448,0.017926317463327176,88.0,45.0,43.0,0.5113636363636364,,,,0.0,134035.0,134065.0,134138.0,134154.0,134172.0,134199.0,134211.0,134225.0,134447.0,134535.0
128,128,135049.48502750328,0.08890546264008138,14.874699079142642,135149.2654894107,-0.07372789310564115,7.643896202591922,135185.67729550603,1.7439288980241048,11.177166194393854,135215.70920720013,-0.3004151606301856,6.701518110765012,135491.96645807996,0.49256522408390296,36.518639118184076,0.9928281305877629,110.0,75.0,84.0,311.0,395.0,35.0,1002.0,1001.0,35.0,18.0,17.0,0.5142857142857142,0.08891061430667441,0.014923536221089611,12.0,8.0,4.0,0.6666666666666666,0.09196692556626856,0.014923536221089611,27.0,14.0,13.0,0.5185185185185185,1.704209030684212,0.014923536221089611,14.0,5.0,9.0,0.35714285714285715,0.6153624215643482,0.014923536221089611,89.0,45.0,44.0,0.5056179775280899,,,,0.0,135031.0,135066.0,135141.0,135153.0,135172.0,135199.0,135211.0,135225.0,135447.0,135536.0
129,129,136048.92655052937,0.09778908108336312,15.21441994375573,136152.57533918705,-0.08492099936537756,2.5479650762026465,136185.70292118596,1.7552928962689742,11.114964688771554,136215.58152651426,-0.29692491594027226,6.500485892315552,136491.98257621462,0.4956101487611978,36.86148826605963,0.9935355953841828,116.0,85.0,75.0,313.0,388.0,31.0,999.0,1000.0,43.0,22.0,21.0,0.5116279069767442,0.08371178638609057,0.020649630571311604,4.0,3.0,1.0,0.75,0.1874947329637992,0.020444480188522414,27.0,14.0,13.0,0.5185185185185185,1.7371418323433456,0.020344158168799004,14.0,5.0,9.0,0.35714285714285715,0.6310620768130614,0.02055209264042842,95.0,48.0,47.0,0.5052631578947369,,,,0.0,136034.0,136065.0,136150.0,136154.0,136172.0,136199.0,136211.0,136225.0,136447.0,136538.0
130,130,137049.7083241498,0.09584239548372617,14.708151837825676,137148.69864360054,-0.0652730278984995,10.191855810642368,137185.65126359084,1.7391952855331019,11.315260417105323,137215.56007539018,-0.3013496589946929,6.956366792703756,137491.86502160644,0.49537353930047107,36.39085696748615,0.9929320555942994,108.0,79.0,81.0,312.0,393.0,29.0,999.0,998.0,34.0,20.0,14.0,0.5882352941176471,0.10073078398599608,0.012876716945742958,10.0,6.0,4.0,0.6,0.06987288056951238,0.026108407577445834,27.0,14.0,13.0,0.5185185185185185,1.6877749604958399,0.02595179007274352,13.0,5.0,8.0,0.38461538461538464,0.6238092616729248,0.026245053231264866,94.0,47.0,47.0,0.5,,,,0.0,137035.0,137064.0,137143.0,137151.0,137172.0,137199.0,137211.0,137224.0,137447.0,137536.0
131,131,138049.52983745263,0.09176169931149848,14.279269070231836,138150.5479653988,-0.05849037411656382,15.28779227757655,138185.57907369838,1.738529536590209,11.396448947213443,138215.3500192529,-0.2986495644996962,7.100820010248052,138491.84336145082,0.4917055549851641,36.69783313210838,0.9928109745187014,108.0,79.0,84.0,313.0,397.0,29.0,999.0,1001.0,35.0,17.0,18.0,0.4857142857142857,0.08784665680599936,0.017359588147845287,22.0,19.0,3.0,0.8636363636363636,0.15457400797183637,0.016722926469596586,27.0,14.0,13.0,0.5185185185185185,1.6814697192803503,0.016737854557505438,14.0,4.0,10.0,0.2857142857142857,0.6442782900979607,0.016654871976776862,92.0,46.0,46.0,0.5,,,,0.0,138033.0,138062.0,138141.0,138154.0,138172.0,138199.0,138211.0,138225.0,138446.0,138538.0
132,132,139049.09728512776,0.09230894198898269,14.855373332107803,139148.8043488244,-0.0757933877119559,7.643896202592152,139185.6722272907,1.7440285648163962,11.206040809671034,139215.52813526793,-0.2923143173366881,7.034327526291714,139491.95775384642,0.4927136363776241,36.38712044895003,0.9927033124348765,108.0,74.0,87.0,312.0,399.0,34.0,999.0,1001.0,34.0,18.0,16.0,0.5294117647058824,0.08603055938150428,0.01569320144807926,13.0,10.0,3.0,0.7692307692307693,0.06323045942486705,0.02307021464301051,27.0,14.0,13.0,0.5185185185185185,1.693486988085179,0.023848961664280435,15.0,5.0,10.0,0.3333333333333333,0.5731913080547186,0.024137529522284523,93.0,46.0,47.0,0.4946236559139785,,,,0.0,139031.0,139065.0,139139.0,139152.0,139172.0,139199.0,139211.0,139226.0,139447.0,139538.0
133,133,140045.24660900142,0.0898046604827779,15.839918910566475,140149.25005830583,-0.06355051105293884,10.191861601757331,140185.65970312795,1.7435875068668933,11.33059922624843,140215.12051442708,-0.2981681237084265,6.930757842071277,140491.9091666336,0.49427429486503466,36.57956912681125,0.9929226901234206,108.0,76.0,85.0,311.0,396.0,32.0,991.0,998.0,43.0,21.0,22.0,0.4883720930232558,0.07692922294071475,0.012542193563120873,15.0,10.0,5.0,0.6666666666666666,0.0743299063522948,0.02463401710440026,27.0,14.0,13.0,0.5185185185185185,1.6993042401103995,0.02471480991302929,13.0,4.0,9.0,0.3076923076923077,0.6359638246299728,0.02443928912578631,88.0,45.0,43.0,0.5113636363636364,,,,0.0,140031.0,140063.0,140139.0,140154.0,140172.0,140199.0,140211.0,140224.0,140447.0,140535.0
134,134,141047.24660900142,0.09207604191827266,15.253908699233614,141146.69864360054,-0.05739898965973413,10.191859955942896,141185.65282640394,1.7445212453873122,11.254174932253784,141215.444006157,-0.2983343566101587,6.840129103446687,141492.07988490933,0.49298075228643434,37.14871857383196,0.9934387364673882,108.0,76.0,83.0,314.0,397.0,32.0,1002.0,1003.0,43.0,18.0,25.0,0.4186046511627907,0.07737326157967761,0.01238883905296447,15.0,8.0,7.0,0.5333333333333333,0.03348592493390937,0.02323731069530441,27.0,14.0,13.0,0.5185185185185185,1.7006377064406069,0.06983385292374442,14.0,4.0,10.0,0.2857142857142857,0.6424204861922497,0.04392388640940801,92.0,45.0,47.0,0.4891304347826087,,,,0.0,141033.0,141065.0,141141.0,141154.0,141172.0,141199.0,141211.0,141224.0,141448.0,141538.0
135,135,142049.75339099858,0.08784973086075926,14.269734334794812,142149.2121913157,-0.07259176739759259,10.191861603456227,142185.67317487748,1.736670730794091,11.29262221735321,142215.47120039945,-0.30776221341544685,6.743863350649388,142492.0445878967,0.48952651267060515,36.25154258166047,0.9922842804321044,104.0,74.0,86.0,312.0,398.0,30.0,1011.0,998.0,31.0,17.0,14.0,0.5483870967741935,0.08360155464470113,0.01249919887089293,16.0,11.0,5.0,0.6875,0.07543684315493296,0.024723863590062248,27.0,14.0,13.0,0.5185185185185185,1.6836828841240035,0.024846510100065042,13.0,4.0,9.0,0.3076923076923077,0.6583294390326183,0.02506315974361857,90.0,45.0,45.0,0.5,,,,0.0,142034.0,142064.0,142138.0,142154.0,142172.0,142199.0,142211.0,142224.0,142447.0,142536.0
136,136,143045.82194810128,0.08721338389646006,15.579008375871553,143148.12330450068,-0.06061517159774344,12.739816746828629,143185.625324873,1.7399464320688607,11.322866869288232,143215.45203459918,-0.30155776447737964,6.831227106675067,143492.125240689,0.49351725015993075,36.717361368733656,0.9929552814059668,108.0,77.0,83.0,313.0,396.0,31.0,988.0,1001.0,41.0,18.0,23.0,0.43902439024390244,0.06274501505003464,0.01425349096173085,16.0,10.0,6.0,0.625,0.05876136402551921,0.00851101427316382,27.0,14.0,13.0,0.5185185185185185,1.6946347554500547,0.03652582063768656,13.0,4.0,9.0,0.3076923076923077,0.6589750036968551,0.03470314551324978,89.0,44.0,45.0,0.4943820224719101,,,,0.0,143033.0,143064.0,143141.0,143154.0,143172.0,143199.0,143211.0,143224.0,143448.0,143537.0
137,137,144051.32873009844,0.09153620284259166,15.136826406982525,144147.84930782026,-0.08217920332002573,5.095929383964923,144185.6738702218,1.747925882169785,11.169497059826396,144215.73488402876,-0.29811539229349643,6.698998677872585,144491.98183409814,0.49262069668608993,36.70037177271931,0.9932787096313219,109.0,74.0,84.0,312.0,396.0,35.0,1014.0,999.0,36.0,20.0,16.0,0.5555555555555556,0.09016213907457715,0.020069060323517962,11.0,7.0,4.0,0.6363636363636364,0.03188250895641978,0.0198124521113967,27.0,14.0,13.0,0.5185185185185185,1.6831428119546854,0.02029025796760703,14.0,5.0,9.0,0.35714285714285715,0.5968336681418774,0.0201544035217781,90.0,45.0,45.0,0.5,,,,0.0,144032.0,144067.0,144141.0,144149.0,144172.0,144199.0,144211.0,144225.0,144447.0,144537.0
138,138,145053.45203459918,0.08968464538851058,14.92467558696526,145144.4246609001,-0.07408457753129494,2.5479654008640567,145185.70461436696,1.7508223126315128,11.099399780561477,145215.79539002574,-0.29851544700228366,6.625359436570682,145491.83143094013,0.4930440026503791,36.75527555899365,0.9926101133402828,108.0,81.0,81.0,314.0,395.0,27.0,1000.0,1000.0,38.0,22.0,16.0,0.5789473684210527,0.07430923871310649,0.01484646898744544,8.0,1.0,7.0,0.125,0.02023299344280971,0.01484646898744544,27.0,14.0,13.0,0.5185185185185185,1.685553314299848,0.01484646898744544,14.0,5.0,9.0,0.35714285714285715,0.603736225871063,0.01484646898744544,95.0,47.0,48.0,0.49473684210526314,,,,0.0,145035.0,145062.0,145143.0,145151.0,145172.0,145199.0,145211.0,145224.0,145448.0,145538.0
139,139,146050.60271279886,0.09314442295953276,14.85120940817968,146149.81580896158,-0.06412489651091416,10.191861602473063,146185.6576637093,1.7375900503828572,11.348053811918438,146215.35160353957,-0.30425650464023146,6.887969637243049,146491.92956869156,0.4946001330692815,36.65377911259904,0.9931213738764417,104.0,76.0,87.0,310.0,397.0,28.0,998.0,1000.0,40.0,23.0,17.0,0.575,0.06742293762072836,0.010759494805818408,15.0,12.0,3.0,0.8,0.11110628793870214,0.029522378833569635,27.0,14.0,13.0,0.5185185185185185,1.682905359684519,0.04815229819510582,14.0,4.0,10.0,0.2857142857142857,0.6544280605040449,0.0398787993439292,89.0,46.0,43.0,0.5168539325842697,,,,0.0,146034.0,146062.0,146138.0,146153.0,146172.0,146199.0,146211.0,146225.0,146448.0,146535.0
140,140,147050.1555582163,0.0944923524316176,14.869348012744254,147149.97262630097,-0.05171113615044176,17.835678392004187,147185.58691320717,1.751004557464504,11.384634872362952,147215.45203459918,-0.30505108521936597,6.897074782950393,147492.06763912906,0.49569765475146316,36.82613703292658,0.9933598062592148,103.0,74.0,84.0,313.0,397.0,29.0,998.0,1000.0,40.0,21.0,19.0,0.525,0.08034715357894531,0.019323122555262667,15.0,10.0,5.0,0.6666666666666666,0.11707340886758469,0.019495393387279913,27.0,14.0,13.0,0.5185185185185185,1.7062620786396834,0.019251306288907095,14.0,4.0,10.0,0.2857142857142857,0.6344854053379025,0.01922858673449742,91.0,46.0,45.0,0.5054945054945055,,,,0.0,147037.0,147066.0,147140.0,147154.0,147172.0,147199.0,147211.0,147224.0,147446.0,147537.0
141,141,148049.78124331357,0.09022804935867113,15.593419828718043,148146.84932180025,-0.07317440691372872,5.0959305363193295,148185.71439672713,1.7469416725844114,11.15252314776529,148215.74970718866,-0.294384854166304,6.733818623840077,148491.8819173285,0.4930925329159668,36.81526832509596,0.9932530845007569,112.0,79.0,81.0,312.0,393.0,33.0,997.0,1002.0,35.0,18.0,17.0,0.5142857142857142,0.09724040704125114,0.01866713538468431,20.0,12.0,8.0,0.6,0.02118709364800833,0.02217560206957201,28.0,14.0,14.0,0.5,1.6735654954039194,0.022376666747019793,14.0,5.0,9.0,0.35714285714285715,0.6033024643700012,0.022115080411331776,92.0,45.0,47.0,0.4891304347826087,,,,0.0,148032.0,148065.0,148144.0,148153.0,148172.0,148199.0,148211.0,148225.0,148449.0,148537.0
142,142,149048.24660900142,0.09376656181651957,15.06711775970495,149148.8322884334,-0.0802513480628687,5.095930801728113,149185.5802474386,1.7502977022072868,11.069652305081323,149216.87669549932,-0.2916188323425493,6.550358216792848,149492.1494768295,0.49483662744679463,36.595088178212144,0.9927687003434656,105.0,72.0,85.0,314.0,399.0,33.0,995.0,999.0,35.0,16.0,19.0,0.45714285714285713,0.09437075779647801,0.016559035892779204,12.0,10.0,2.0,0.8333333333333334,0.05608199439688647,0.022412200505823283,27.0,14.0,13.0,0.5185185185185185,1.7143295977555908,0.021983848057911603,13.0,6.0,7.0,0.46153846153846156,0.5464143744758748,0.02225396322698494,91.0,44.0,47.0,0.4835164835164835,,,,0.0,149034.0,149067.0,149139.0,149151.0,149172.0,149199.0,149211.0,149224.0,149448.0,149538.0
143,143,150051.17805189872,0.08958549721226984,14.944450356392297,150149.5282006667,-0.06075704522324148,12.739827004298403,150185.6090154491,1.7370266069292233,11.368703138742955,150215.45203459918,-0.3060075304532254,6.762150846846201,150491.96984751293,0.49382770852287716,36.554657596322606,0.99295146067467,110.0,79.0,81.0,314.0,395.0,31.0,1011.0,999.0,32.0,18.0,14.0,0.5625,0.08775251976981355,0.011748597478461032,16.0,12.0,4.0,0.75,0.11792882323349713,0.031140537958690474,27.0,14.0,13.0,0.5185185185185185,1.6879053493759066,0.05617730332895049,13.0,4.0,9.0,0.3076923076923077,0.6469207188123084,0.038485942310634486,92.0,46.0,46.0,0.5,,,,0.0,150033.0,150064.0,150143.0,150153.0,150172.0,150199.0,150211.0,150224.0,150446.0,150538.0
144,144,151050.60271279886,0.0854883115642572,14.45377462655365,151150.09626789554,-0.07546478405649562,7.643896202549252,151185.71277779836,1.7332939871092279,11.278184331103514,151215.5015934705,-0.30623704350150177,6.975696903162251,151491.92258314695,0.4869896326483892,36.344157159335595,0.9919245132963579,106.0,80.0,82.0,313.0,395.0,26.0,999.0,999.0,33.0,22.0,11.0,0.6666666666666666,0.0723385675958326,0.010824131913916605,12.0,8.0,4.0,0.6666666666666666,0.09717749881381699,0.01419318766333623,27.0,14.0,13.0,0.5185185185185185,1.6695125954239707,0.04620118846420667,13.0,5.0,8.0,0.38461538461538464,0.6111117994299122,0.027250256592152817,90.0,45.0,45.0,0.5,,,,0.0,151036.0,151062.0,151142.0,151152.0,151172.0,151199.0,151211.0,151224.0,151447.0,151537.0
145,145,152046.82194810128,0.09621874970400597,15.118671384065104,152147.54796540082,-0.05829996715926871,14.950919505039145,152185.63129876822,1.7398859198521808,11.419234530663436,152215.2811173889,-0.30261287905891615,6.908234860806847,152491.84347462718,0.49450557181076693,36.7889319703209,0.9932637304904566,105.0,74.0,85.0,310.0,395.0,31.0,989.0,1002.0,36.0,18.0,18.0,0.5,0.09006769016178656,0.014449517565366233,18.0,11.0,7.0,0.6111111111111112,0.07045648947928508,0.014449517565366233,27.0,14.0,13.0,0.5185185185185185,1.7129751496296928,0.014449517565366233,14.0,4.0,10.0,0.2857142857142857,0.6208695469955853,0.014449517565366233,86.0,44.0,42.0,0.5116279069767442,,,,0.0,152034.0,152065.0,152139.0,152153.0,152172.0,152199.0,152211.0,152224.0,152448.0,152534.0
146,146,153049.94537497364,0.09060434275108085,14.687379698492494,153148.97262630097,-0.054923890658138956,17.835730386117067,153185.6241385843,1.7458757052612865,11.379931736021733,153215.38722023158,-0.30985248012140953,6.89131143944107,153492.00328819032,0.49166170718552066,36.55756458457836,0.9926186082695607,102.0,71.0,85.0,312.0,397.0,31.0,1012.0,1000.0,38.0,18.0,20.0,0.47368421052631576,0.07975925802191432,0.015085446951777291,18.0,13.0,5.0,0.7222222222222222,0.08494853617008716,0.015085446951777291,27.0,14.0,13.0,0.5185185185185185,1.716817065102407,0.015085446951777291,14.0,4.0,10.0,0.2857142857142857,0.6710763696118744,0.015085446951777291,91.0,46.0,45.0,0.5054945054945055,,,,0.0,153037.0,153068.0,153139.0,153154.0,153172.0,153199.0,153211.0,153224.0,153448.0,153536.0
147,147,154049.1717696172,0.09414356305736234,15.314549025365864,154150.66143125217,-0.08187892535989193,5.095930801695199,154185.6997452893,1.7471900047435838,11.217514193494395,154215.47202114624,-0.3021793363120754,6.643996033530754,154492.21271900635,0.4936398720531569,36.78937940525251,0.9935540615753636,114.0,80.0,79.0,312.0,391.0,34.0,994.0,1000.0,34.0,18.0,16.0,0.5294117647058824,0.1081061432279741,0.010952190460081604,8.0,6.0,2.0,0.75,0.11936260221275478,0.03349315790015533,27.0,14.0,13.0,0.5185185185185185,1.7075274858924006,0.03399051764627756,13.0,4.0,9.0,0.3076923076923077,0.6558233186736975,0.03349952447195981,92.0,46.0,46.0,0.5,,,,0.0,154031.0,154065.0,154145.0,154153.0,154172.0,154199.0,154211.0,154224.0,154449.0,154536.0
148,148,155049.69511456898,0.09486714113366063,14.95403948901259,155150.42466052357,-0.08388949478810714,2.5479654008640567,155185.67411236672,1.7480981974805418,11.147966580906791,155215.75190393627,-0.29717542723500623,6.724767954971652,155491.93605125783,0.49301388715408806,36.54920514879246,0.9932930387573804,113.0,84.0,75.0,313.0,388.0,29.0,1005.0,1000.0,35.0,20.0,15.0,0.5714285714285714,0.07175924145060239,0.01086275450424864,2.0,1.0,1.0,0.5,0.10937122051238458,0.03528581062798304,27.0,14.0,13.0,0.5185185185185185,1.709856072742215,0.04196128559269828,13.0,5.0,8.0,0.38461538461538464,0.6196215913097376,0.03965918589728037,90.0,45.0,45.0,0.5,,,,0.0,155036.0,155065.0,155149.0,155151.0,155172.0,155199.0,155211.0,155224.0,155447.0,155537.0
149,149,156049.36339243682,0.09858958860219817,15.24157500564169,156148.27398270028,-0.07362211630043763,7.643886335867587,156185.67989864206,1.7417051946437772,11.264890860305938,156215.4424296236,-0.2958939762456199,6.835993367006075,156491.9304337569,0.4962067049652007,36.89512560718211,0.9936093564952508,110.0,78.0,81.0,311.0,392.0,32.0,995.0,1000.0,32.0,15.0,17.0,0.46875,0.1201560179505465,0.018729192867963654,9.0,4.0,5.0,0.4444444444444444,0.04520564398536413,0.019011207580687434,27.0,14.0,13.0,0.5185185185185185,1.6924832078663588,0.01912734016012815,14.0,4.0,10.0,0.2857142857142857,0.6255362968603748,0.019369417567140775,93.0,47.0,46.0,0.5053763440860215,,,,0.0,156034.0,156066.0,156144.0,156153.0,156172.0,156199.0,156211.0,156225.0,156447.0,156536.0
150,150,157049.63905261617,0.0906539294541487,15.288450259809176,157150.57533909992,-0.08468034134826657,2.5479653200630104,157185.67710687075,1.7430938953844484,11.166339186558421,157215.49495469226,-0.30396525254945356,6.5693366206793185,157492.1247405258,0.49189441107929605,36.69007458122156,0.9927247950119837,110.0,85.0,77.0,311.0,388.0,25.0,1003.0,1000.0,36.0,18.0,18.0,0.5,0.09679188714993564,0.010822665165826511,5.0,4.0,1.0,0.8,0.12569776510421254,0.031471141022270444,27.0,14.0,13.0,0.5185185185185185,1.6853144656518388,0.031669341233600413,13.0,4.0,9.0,0.3076923076923077,0.6567667256164023,0.031764520761188735,95.0,46.0,49.0,0.4842105263157895,,,,0.0,157037.0,157062.0,157147.0,157152.0,157172.0,157199.0,157211.0,157224.0,157448.0,157535.0
151,151,158049.13897412343,0.09359078431699248,15.100024071982759,158143.84932180025,-0.06363905649627026,5.095927801696341,158185.74486945523,1.751360009857549,11.157941416138671,158215.50208105976,-0.2923269883789336,6.803629181099894,158492.2889431956,0.4917989904527639,36.87629272575274,0.9931129963694851,110.0,74.0,84.0,313.0,397.0,36.0,1001.0,999.0,41.0,21.0,20.0,0.5121951219512195,0.08314367006514894,0.007177747116712434,7.0,3.0,4.0,0.42857142857142855,0.044935895599740386,0.013388647775698996,27.0,14.0,13.0,0.5185185185185185,1.6927854324638882,0.04091440703069612,14.0,5.0,9.0,0.35714285714285715,0.6085581126829673,0.024263102081259535,91.0,45.0,46.0,0.4945054945054945,,,,0.0,158031.0,158067.0,158141.0,158148.0,158172.0,158199.0,158211.0,158225.0,158447.0,158538.0
152,152,159051.02737369903,0.08889195529069291,14.76052635294531,159150.54796540068,-0.06301888580441166,15.287791398067329,159185.5674501776,1.739797315239635,11.436543636156452,159215.26732513428,-0.30872351753609295,7.123048783170365,159492.10744895987,0.4949927346241038,36.21771736556703,0.9927628938441758,106.0,78.0,86.0,310.0,396.0,28.0,1001.0,1000.0,28.0,18.0,10.0,0.6428571428571429,0.07975022622379083,0.008449860570643893,15.0,12.0,3.0,0.8,0.12644228204272162,0.013435834323717014,27.0,14.0,13.0,0.5185185185185185,1.6768768219418102,0.05398610281841214,14.0,4.0,10.0,0.2857142857142857,0.6545974862119278,0.0365873496079747,89.0,46.0,43.0,0.5168539325842697,,,,0.0,159033.0,159061.0,159139.0,159154.0,159172.0,159199.0,159211.0,159225.0,159447.0,159535.0
153,153,160049.85387148333,0.08891764357687128,15.27793457926161,160146.97262630097,-0.05294246364716818,17.835757734749198,160185.56138311885,1.7466055521920805,11.361026824831704,160215.48589182558,-0.3082987314687824,6.884687810403683,160491.92211520608,0.49056174726842344,36.357633478706674,0.9921688466076791,96.0,74.0,87.0,312.0,399.0,22.0,999.0,1000.0,42.0,23.0,19.0,0.5476190476190477,0.07630309085811302,0.017131191304130825,20.0,13.0,7.0,0.65,0.0431967129324946,0.01658840614772102,27.0,14.0,13.0,0.5185185185185185,1.6823864276316716,0.01684612385279037,13.0,4.0,9.0,0.3076923076923077,0.6557445748260169,0.016862203160153667,90.0,45.0,45.0,0.5,,,,0.0,160041.0,160063.0,160137.0,160154.0,160172.0,160199.0,160211.0,160224.0,160448.0,160536.0
154,154,161052.60271279886,0.09594102327610328,15.268743602792993,161145.4246609001,-0.07204640640675243,2.5479653708942656,161185.6686518559,1.7561281328826455,11.090171735045047,161215.70337576073,-0.29238328466438385,6.502666143516261,161492.05384049958,0.4965328239195578,36.88914723378878,0.9938864178733471,111.0,80.0,80.0,314.0,394.0,31.0,1003.0,1000.0,38.0,21.0,17.0,0.5526315789473685,0.08389470540200594,0.016732673387704972,8.0,1.0,7.0,0.125,0.01738168250905657,0.02351040859024602,27.0,14.0,13.0,0.5185185185185185,1.699073985553428,0.02359206943596297,13.0,5.0,8.0,0.38461538461538464,0.5906089005508932,0.023102842419713766,92.0,46.0,46.0,0.5,,,,0.0,161033.0,161064.0,161144.0,161152.0,161172.0,161199.0,161211.0,161224.0,161446.0,161538.0
155,155,162049.4400672669,0.09012004832958977,14.727918025532434,162148.27398268192,-0.068556926362349,7.643896202588083,162185.73418194614,1.7432265684266253,11.243370396769599,162215.51614499348,-0.29882561959041365,6.915924641509294,162491.84692370932,0.49802945812263116,36.459840067881586,0.993576407720986,105.0,77.0,84.0,314.0,398.0,28.0,990.0,1001.0,32.0,15.0,17.0,0.46875,0.1078552136798268,0.01037080820805332,17.0,12.0,5.0,0.7058823529411765,0.07234769512277084,0.029525198596406996,27.0,14.0,13.0,0.5185185185185185,1.699324934101536,0.029501013417450164,13.0,5.0,8.0,0.38461538461538464,0.5990872699089164,0.03005132282577673,93.0,47.0,46.0,0.5053763440860215,,,,0.0,162035.0,162063.0,162140.0,162150.0,162172.0,162199.0,162211.0,162224.0,162448.0,162538.0
156,156,163049.10799883565,0.09049692144489127,14.575607904097303,163148.48297868474,-0.06274247424844107,10.191861603453379,163185.67734974512,1.740115481895755,11.279495212564454,163215.45203459918,-0.30365317446442697,6.820775330043987,163492.03071099697,0.4936806626990685,36.68385665306341,0.9933831188993185,104.0,79.0,83.0,312.0,395.0,25.0,1001.0,1001.0,41.0,21.0,20.0,0.5121951219512195,0.08115856313866474,0.021342353963442917,11.0,7.0,4.0,0.6363636363636364,0.05118379944172544,0.02155428084106235,27.0,14.0,13.0,0.5185185185185185,1.6871290653736994,0.02158062778199246,13.0,4.0,9.0,0.3076923076923077,0.6525291363984075,0.021640182536922997,93.0,45.0,48.0,0.4838709677419355,,,,0.0,163037.0,163062.0,163141.0,163152.0,163172.0,163199.0,163211.0,163224.0,163449.0,163536.0
