,cycle,p_center,p_height,p_width,q_center,q_height,q_width,r_center,r_height,r_width,s_center,s_height,s_width,t_center,t_height,t_width,r_squared,pr_interval,pr_segment,qrs_duration,st_segment,qt_interval,p_duration,pp_interval,rr_interval,fwhm_p,rise_time_p,decay_time_p,rise_decay_symmetry_p,sharpness_deriv_p,sharpness_diff_p,fwhm_q,rise_time_q,decay_time_q,rise_decay_symmetry_q,sharpness_deriv_q,fwhm_r,rise_time_r,decay_time_r,rise_decay_symmetry_r,sharpness_deriv_r,sharpness_diff_r,fwhm_s,rise_time_s,decay_time_s,rise_decay_symmetry_s,sharpness_deriv_s,fwhm_t,rise_time_t,decay_time_t,rise_decay_symmetry_t,sharpness_deriv_t,sharpness_diff_t,Average_Heart_Rate,SDNN,RMSSD,NN50,p_on,p_off,q_on,q_off,r_on,r_off,s_on,s_off,t_on,t_off
0,0,0.0,0.0,0.0,0.0,0.0,0.0,0.0,0.0,0.0,0.0,0.0,0.0,0.0,0.0,0.0,0.0,0.0,0.0,0.0,0.0,0.0,0.0,0.0,0.0,0.0,0.0,0.0,0.0,0.0,0.0,0.0,0.0,0.0,0.0,0.0,0.0,0.0,0.0,0.0,0.0,0.0,0.0,0.0,0.0,0.0,0.0,0.0,0.0,0.0,0.0,0.0,0.0,60.00029732867833,300.72002454451774,431.1761462452545,33.0,,,,,,,,,,
1,1,2063.4246609001434,0.13985269304096754,2.5479654008640567,2122.617863762039,-0.4338782725552666,0.23060575178940856,2185.531371059077,1.7521058942770622,11.021285670706066,2216.355006447673,-0.2898683845025553,6.2598242668845625,2490.6477415035024,0.49183509638038414,36.3039650588525,0.9556651250386298,60.0,55.0,102.0,303.0,405.0,5.0,,,5.0,1.0,4.0,0.2,0.10138937660428773,0.06364392709809528,2.0,1.0,1.0,0.5,0.177296111987911,0.06703587297331899,27.0,14.0,13.0,0.5185185185185185,1.6477754301952587,0.0667409766468567,13.0,5.0,8.0,0.38461538461538464,0.5997084302497502,0.0683367990565618,83.0,42.0,41.0,0.5060240963855421,,,,0.0,2062.0,2067.0,2122.0,2124.0,2172.0,2199.0,2211.0,2224.0,2464.0,2527.0
2,2,3046.5753450307593,0.14612646175624014,2.5479654008640567,3141.424660898801,-0.1724694561884257,0.4649781267535262,3185.641529162283,1.7448886412205926,11.162637607825372,3215.0777576998607,-0.3012459880064064,6.49502478321337,3490.788146584323,0.5120838003183102,37.3661137183824,0.9618766319977837,94.0,90.0,80.0,293.0,373.0,4.0,984.0,1001.0,4.0,1.0,3.0,0.25,0.24050587418381567,0.05648926312706207,3.0,1.0,2.0,0.3333333333333333,0.06982262123992622,0.05648926312706207,28.0,14.0,14.0,0.5,1.637346412270931,0.05648926312706207,9.0,4.0,5.0,0.4444444444444444,0.6508599816946067,0.05648926312706207,76.0,42.0,34.0,0.5526315789473685,,,,0.0,3046.0,3050.0,3140.0,3143.0,3172.0,3200.0,3211.0,3220.0,3456.0,3513.0
3,3,4066.110611906264,0.20541271921659754,0.5374034560356618,4119.405616373389,-0.3777568061822857,0.314602914638994,4185.605730357059,1.7759996668014006,11.359044283262328,4214.954696361002,-0.282905048900986,6.7159680866512215,4492.625791741298,0.499624700057432,37.212767104488215,0.9590649515404303,53.0,51.0,108.0,300.0,408.0,2.0,1019.0,1001.0,2.0,1.0,1.0,0.5,0.1526971922483781,0.05821687457655882,2.0,1.0,1.0,0.5,0.2081961028803122,0.059685151328395,27.0,14.0,13.0,0.5185185185185185,1.7553962738993567,0.0667063297330776,16.0,5.0,11.0,0.3125,0.544783183329558,0.0698056639958272,71.0,36.0,35.0,0.5070422535211268,,,,0.0,4065.0,4067.0,4118.0,4120.0,4172.0,4199.0,4210.0,4226.0,4463.0,4526.0
4,4,5054.810150287585,0.14999129042791295,1.1346791546043624,5106.575339099857,-0.20734763921647295,0.5644350381270883,5185.6867833319475,1.745697963371945,11.003694514391865,5216.351348812006,-0.28168636068149294,8.067950979692817,5494.657460196832,0.49046423716665444,34.22576753485458,0.9565419925362946,52.0,49.0,118.0,303.0,421.0,3.0,989.0,998.0,3.0,2.0,1.0,0.6666666666666666,0.14000635803961978,0.05749647893623677,3.0,2.0,1.0,0.6666666666666666,0.08617367978959972,0.05672577137260662,26.0,13.0,13.0,0.5,1.7018209378801148,0.057348123935773716,12.0,5.0,7.0,0.4166666666666667,0.6164722233742178,0.05651284727376921,83.0,43.0,40.0,0.5180722891566265,,,,0.0,5053.0,5056.0,5105.0,5108.0,5173.0,5199.0,5211.0,5223.0,5457.0,5526.0
5,5,6062.575339099857,0.15454902251733635,2.5479654008640567,6110.152825843188,-0.14730552813341177,0.39471339605326955,6185.46642671774,1.7769850099562785,10.725205179322211,6215.204911472039,-0.37292526011881294,2.5479654008640567,6491.7451671573945,0.5040194438264124,37.54419035564142,0.9575563664889616,47.0,45.0,113.0,304.0,417.0,2.0,1008.0,1002.0,2.0,1.0,1.0,0.5,0.2110183773145356,0.05772098618734323,2.0,1.0,1.0,0.5,0.12046679110767491,0.05793569269116827,29.0,13.0,16.0,0.4482758620689655,1.7369218656895555,0.05858263150695783,8.0,1.0,7.0,0.125,0.7191194838226844,0.059170237551779414,65.0,31.0,34.0,0.47692307692307695,,,,0.0,6062.0,6064.0,6109.0,6111.0,6172.0,6199.0,6214.0,6222.0,6461.0,6526.0
6,6,7040.062831626537,0.19428234564686447,0.4865318651357751,7144.719857427945,-0.1831447118021643,0.5600752950881934,7185.427537965361,1.7555318075765336,10.738426328615464,7216.424660900143,-0.3651186244518599,2.5479654008639554,7492.0940121601125,0.49935249669448534,36.39780199790752,0.9562618967057205,105.0,103.0,78.0,305.0,383.0,2.0,977.0,1000.0,2.0,1.0,1.0,0.5,0.2695581867444574,0.057686132154959005,2.0,1.0,1.0,0.5,0.051831585964491375,0.057686132154959005,28.0,14.0,14.0,0.5,1.7480841437570787,0.057686132154959005,7.0,1.0,6.0,0.14285714285714285,0.6216245552253278,0.057686132154959005,69.0,28.0,41.0,0.4057971014492754,,,,0.0,7039.0,7041.0,7144.0,7146.0,7173.0,7199.0,7215.0,7222.0,7464.0,7527.0
7,7,8048.424660900143,0.11604454059720445,2.5479654008054933,8142.832450591716,-0.1076112893237742,1.7023193641566525,8185.542545354457,1.7417305896749777,10.978264176333532,8215.868197743837,-0.3369427151096963,6.208754839355873,8492.035613752014,0.4731514621642023,34.81652216343159,0.9583727940268933,95.0,93.0,81.0,307.0,388.0,2.0,1008.0,1000.0,2.0,1.0,1.0,0.5,0.10511448109947158,0.057809833713232985,4.0,1.0,3.0,0.25,0.07628635069905651,0.05793104599693136,25.0,13.0,12.0,0.52,1.7176440757768194,0.05750693006961838,11.0,4.0,7.0,0.36363636363636365,0.6596903532929,0.0576506691095386,78.0,36.0,42.0,0.46153846153846156,,,,0.0,8047.0,8049.0,8142.0,8146.0,8173.0,8198.0,8212.0,8223.0,8456.0,8530.0
8,8,9048.424660874438,0.2353719667511782,0.4394130810831519,9141.424660900142,-0.10947908248362663,2.5479654008640567,9185.648599854807,1.716811435810633,11.067608149455461,9217.098355906644,-0.28163054453277836,7.643896202588168,9491.769404060906,0.48611434054578023,34.20726823203704,0.9544389635604045,93.0,90.0,85.0,298.0,383.0,3.0,1000.0,1002.0,3.0,1.0,2.0,0.3333333333333333,0.1463864798010475,0.05865048752902399,2.0,1.0,1.0,0.5,0.1849217676799402,0.058006357677726564,27.0,14.0,13.0,0.5185185185185185,1.6802891337319779,0.0580570687012528,14.0,6.0,8.0,0.42857142857142855,0.521287390601209,0.05856135557544538,61.0,29.0,32.0,0.47540983606557374,,,,0.0,9047.0,9050.0,9140.0,9142.0,9172.0,9199.0,9213.0,9225.0,9463.0,9523.0
9,9,10049.575339099858,0.10250710421123045,2.5479654008640567,10146.424660900142,-0.2822019942043457,0.44393209183922305,10185.57097355389,1.738854951531112,10.917105662224726,10217.150678199714,-0.33008285492005573,5.095930801728113,10491.211539687627,0.4836719078094913,33.975744807864366,0.9552756085162423,96.0,94.0,75.0,304.0,379.0,2.0,1002.0,997.0,2.0,1.0,1.0,0.5,0.13501006637227345,0.060577793385300005,3.0,1.0,2.0,0.3333333333333333,0.09413752634950648,0.06078428475121355,28.0,14.0,14.0,0.5,1.6154173144692785,0.061804318910854146,11.0,6.0,5.0,0.5454545454545454,0.5160189227147454,0.06233583364098587,77.0,40.0,37.0,0.5194805194805194,,,,0.0,10049.0,10051.0,10145.0,10148.0,10172.0,10199.0,10211.0,10220.0,10460.0,10524.0
10,10,11054.424660900113,0.1287494258772241,2.5479654008640567,11148.597862791337,-0.4642049559630257,0.30245502612312947,11185.463800120018,1.7503380829791164,10.907098454753376,11216.070171785392,-0.33822105976499645,5.095930801728113,11491.80719506455,0.4978113768680567,35.62647531244644,0.9600869253101593,95.0,93.0,70.0,311.0,381.0,2.0,1004.0,1000.0,2.0,1.0,1.0,0.5,0.20923997059804886,0.058560711818664235,2.0,1.0,1.0,0.5,0.10973058874664175,0.05767900880029484,26.0,12.0,14.0,0.46153846153846156,1.8488984156984973,0.05771727967114393,7.0,5.0,2.0,0.7142857142857143,0.673178421926916,0.05768926409564278,64.0,27.0,37.0,0.421875,,,,0.0,11053.0,11055.0,11148.0,11150.0,11173.0,11199.0,11211.0,11218.0,11465.0,11529.0
11,11,12057.575339099858,0.12407383734027691,2.5479654008640567,12124.575448570336,-0.3334820593862447,0.2818650064088633,12185.660984587908,1.7525263762847845,10.976556120470455,12214.931288319352,-0.28269214730983405,5.095930801728113,12492.13009124648,0.4946591597452173,37.80828376847693,0.9617665900875146,67.0,65.0,96.0,301.0,397.0,2.0,1004.0,1001.0,2.0,1.0,1.0,0.5,0.13645364491401998,0.054342829364776635,2.0,1.0,1.0,0.5,0.15116084398335222,0.054342829364776635,28.0,14.0,14.0,0.5,1.6996296527181092,0.054342829364776635,7.0,2.0,5.0,0.2857142857142857,0.6209450455010741,0.054342829364776635,100.0,48.0,52.0,0.48,,,,0.0,12057.0,12059.0,12124.0,12127.0,12172.0,12200.0,12213.0,12220.0,12458.0,12521.0
12,12,13045.575339099858,0.15271166544933365,2.5479654006470485,13091.080504247448,-0.14493497229753846,0.4138904128568678,13185.830565780889,1.7503612547280374,11.169931078665725,13215.945972343305,-0.31606558666995066,6.00214377380841,13492.463745768708,0.5193108358203657,36.85979954878179,0.9602587873898514,49.0,43.0,130.0,309.0,439.0,6.0,988.0,1000.0,6.0,5.0,1.0,0.8333333333333334,0.21166251238880082,0.06229366829996301,2.0,1.0,1.0,0.5,0.10118069146744166,0.0611374445263548,25.0,13.0,12.0,0.52,1.8392828870182665,0.06042363914193973,12.0,4.0,8.0,0.3333333333333333,0.6631627221283822,0.06146091606093584,92.0,47.0,45.0,0.5108695652173914,,,,0.0,13041.0,13047.0,13090.0,13092.0,13173.0,13198.0,13212.0,13220.0,13455.0,13529.0
13,13,14028.424660897355,0.11884548383484551,2.5479654008638746,14145.575356327068,-0.5841247443819744,0.3062070648442981,14185.349112072094,1.7599133564969092,10.942317897736974,14215.575339099858,-0.3988303257576945,2.5479654008640567,14503.904069198274,0.5128715474594934,30.57558481036868,0.9363594746190298,118.0,116.0,72.0,304.0,376.0,2.0,982.0,999.0,2.0,1.0,1.0,0.5,0.20382575977642445,0.05547408989774104,2.0,1.0,1.0,0.5,0.15106699989293515,0.061366243837421126,27.0,13.0,14.0,0.48148148148148145,1.812699373412768,0.06053609133450081,4.0,3.0,1.0,0.75,0.7093196464370052,0.061891698419843356,89.0,57.0,32.0,0.6404494382022472,,,,0.0,14027.0,14029.0,14145.0,14147.0,14172.0,14199.0,14213.0,14217.0,14466.0,14521.0
14,14,15054.424660900142,0.13625874269609664,2.5479654008640567,15151.312186843441,-0.11411619129724931,5.0959308017281035,15185.506149721376,1.7230665654980706,11.081765900874256,15216.67513323466,-0.3407552259659888,5.095930801728113,15492.397788130018,0.4728288545512962,36.16233202451949,0.9572366457590394,96.0,90.0,75.0,303.0,378.0,6.0,1026.0,1003.0,6.0,1.0,5.0,0.16666666666666666,0.13571294078469853,0.05936129965019903,4.0,2.0,2.0,0.5,0.00852651680397247,0.059784218182656994,28.0,15.0,13.0,0.5357142857142857,1.5567836746851893,0.059758970056239355,10.0,3.0,7.0,0.3,0.6037076044597214,0.059228898901462705,81.0,44.0,37.0,0.5432098765432098,,,,0.0,15053.0,15059.0,15149.0,15153.0,15172.0,15198.0,15214.0,15224.0,15462.0,15527.0
15,15,16052.614125728951,0.1325789578482678,2.5479654008640154,16141.405989410636,-0.417554000158488,0.2866293023125314,16185.606166949832,1.743646880417039,10.96961250801983,16217.150678199714,-0.33093451216350217,5.095930801728113,16492.096393268544,0.48972553417237324,36.58389903160555,0.9587947001244944,88.0,86.0,80.0,308.0,388.0,2.0,999.0,998.0,2.0,1.0,1.0,0.5,0.11397102768448823,0.053123806622146205,2.0,1.0,1.0,0.5,0.11781658925905002,0.0569149451517336,27.0,14.0,13.0,0.5185185185185185,1.789757368957004,0.06128943535921434,11.0,2.0,9.0,0.18181818181818182,0.6039532451082616,0.062090426172498527,69.0,33.0,36.0,0.4782608695652174,,,,0.0,16052.0,16054.0,16140.0,16142.0,16172.0,16199.0,16215.0,16220.0,16459.0,16528.0
16,16,17047.424660900142,0.1623723873813999,2.5479654008640567,17146.218858059696,-0.1410692810462641,2.5479654008640567,17185.54542563701,1.748140087775131,10.942282546045114,17217.150678199716,-0.31756013806654043,5.095930801728113,17491.92203788468,0.5002614851901264,36.53863959107164,0.9570197311874925,98.0,95.0,76.0,308.0,384.0,3.0,994.0,999.0,3.0,1.0,2.0,0.3333333333333333,0.19367454934552325,0.05802257232325866,3.0,2.0,1.0,0.6666666666666666,0.15509965889275587,0.06991967075308606,28.0,14.0,14.0,0.5,1.762148403698167,0.0680510882637935,13.0,5.0,8.0,0.38461538461538464,0.5029356774546269,0.06887891482436703,73.0,37.0,36.0,0.5068493150684932,,,,0.0,17046.0,17049.0,17144.0,17147.0,17172.0,17199.0,17213.0,17220.0,17455.0,17528.0
17,17,18038.849646736966,0.203464554395619,0.5898364387108265,18140.10914894306,-0.15775208983523592,0.7057836514840928,18185.771733928774,1.78348177132231,10.973344255799303,18215.72601729957,-0.2963242705095732,6.600119906665564,18492.247749271333,0.4949357458451794,36.75295647840737,0.9553091791372839,101.0,99.0,81.0,299.0,380.0,2.0,992.0,1003.0,2.0,1.0,1.0,0.5,0.2115851404406446,0.06138666159234822,2.0,1.0,1.0,0.5,0.20821065371657388,0.06084390123786587,27.0,14.0,13.0,0.5185185185185185,1.7394667449305654,0.06115257250525378,11.0,4.0,7.0,0.36363636363636365,0.6427425752848197,0.06115257250525378,94.0,46.0,48.0,0.48936170212765956,,,,0.0,18038.0,18040.0,18139.0,18141.0,18172.0,18199.0,18212.0,18220.0,18465.0,18519.0
18,18,19055.150678199883,0.10675744877886786,5.095930801553561,19148.424660900142,-0.1299262719460643,2.547965400863815,19185.589667559223,1.7447065215763993,11.186684644609416,19215.912061402945,-0.3044680851117345,6.8656835508282565,19493.563522919554,0.504493205866985,34.67440989813019,0.9606602852893739,93.0,89.0,76.0,309.0,385.0,4.0,1017.0,998.0,4.0,1.0,3.0,0.25,0.060093449688811716,0.055588325152344305,3.0,1.0,2.0,0.3333333333333333,0.012881407449070043,0.055579633265709145,27.0,14.0,13.0,0.5185185185185185,1.7542216644507418,0.055966886013236926,13.0,5.0,8.0,0.38461538461538464,0.5556579450562177,0.05570469074205495,80.0,39.0,41.0,0.4875,,,,0.0,19054.0,19058.0,19147.0,19150.0,19172.0,19199.0,19211.0,19223.0,19469.0,19532.0
19,19,20048.849321800284,0.12731982645388767,5.095930801728108,20127.781834353584,-0.15395758655851455,0.7333601149272888,20185.870340081623,1.7392705024702502,11.241915088316091,20214.875770876195,-0.312951191459212,7.621943747702476,20491.81054347782,0.4847962835234147,36.503978904832785,0.9585906122148203,80.0,75.0,98.0,296.0,394.0,5.0,992.0,1000.0,5.0,3.0,2.0,0.6,0.15226473838218957,0.05705158623172394,3.0,2.0,1.0,0.6666666666666666,0.17117788337351536,0.05698233847375673,26.0,13.0,13.0,0.5,1.8165641210604677,0.057364170545647845,12.0,3.0,9.0,0.25,0.6613842956636143,0.057364170545647845,84.0,41.0,43.0,0.4880952380952381,,,,0.0,20046.0,20051.0,20126.0,20129.0,20173.0,20199.0,20212.0,20224.0,20460.0,20520.0
20,20,21066.57533910045,0.13221927306580097,2.5479654008640567,21086.0149927677,-0.17753918486376571,0.0922080423129544,21185.694200049427,1.725536110902364,11.18147355408012,21215.45203459914,-0.3373245859633282,6.4808642642598535,21492.176918989102,0.4717530510834994,35.36428126397703,0.9532512456506138,19.0,17.0,139.0,302.0,441.0,2.0,1019.0,1000.0,2.0,1.0,1.0,0.5,0.13053495259535447,0.06089519059204362,2.0,1.0,1.0,0.5,0.20436710847903042,0.06052457212438885,28.0,14.0,14.0,0.5,1.802699201188613,0.05931585258329854,13.0,4.0,9.0,0.3076923076923077,0.6996832833483341,0.05874135031666649,81.0,39.0,42.0,0.48148148148148145,,,,0.0,21066.0,21068.0,21085.0,21087.0,21172.0,21200.0,21211.0,21224.0,21463.0,21526.0
21,21,22071.826472802175,0.20420004562192598,0.624752095699329,22120.417512677337,-0.4645062514354117,0.272576735286078,22185.70367966617,1.7651259026430686,11.071651222521396,22216.45203459914,-0.28620042034471144,7.533250439629818,22501.2054255977,0.4801561769121715,36.726195387933345,0.9489523110240594,48.0,46.0,106.0,299.0,405.0,2.0,1005.0,999.0,2.0,1.0,1.0,0.5,0.2098654385560289,0.058305085356265426,2.0,1.0,1.0,0.5,0.1369081482602773,0.058305085356265426,28.0,15.0,13.0,0.5357142857142857,1.643199777802176,0.058305085356265426,17.0,6.0,11.0,0.35294117647058826,0.5322310215381748,0.058305085356265426,70.0,47.0,23.0,0.6714285714285714,,,,0.0,22071.0,22073.0,22119.0,22121.0,22172.0,22199.0,22212.0,22225.0,22456.0,22524.0
22,22,23055.59396955868,0.14760214250164452,5.095930801728113,23068.226789493598,-0.15981284860908437,0.5909244935266948,23185.59492063685,1.7743632028994323,10.8595739076187,23218.30135639943,-0.2539345436824109,6.35257567159866,23491.077983538296,0.5032446524315662,37.16239140460933,0.9619287457682468,14.0,8.0,157.0,299.0,456.0,6.0,983.0,1002.0,6.0,3.0,3.0,0.5,0.11131292321582113,0.05806674846392224,2.0,1.0,1.0,0.5,0.14515901448363883,0.05806674846392224,28.0,14.0,14.0,0.5,1.6988443827778237,0.05806674846392224,12.0,6.0,6.0,0.5,0.5783126601762202,0.05806674846392224,86.0,42.0,44.0,0.4883720930232558,,,,0.0,23053.0,23059.0,23067.0,23069.0,23173.0,23199.0,23212.0,23224.0,23456.0,23523.0
23,23,25055.575339099858,0.17232817391578678,2.547965400855358,25149.048201132755,-0.2569896745354786,-0.05698873100268248,25185.44751673284,1.7578350074082163,10.987815626455435,25219.72601729957,-0.22299804048753122,6.421378775661053,25492.359522146726,0.540124643906147,36.56382265189541,0.95669063852253,95.0,90.0,77.0,301.0,378.0,5.0,2001.0,2000.0,5.0,4.0,1.0,0.8,0.14800188443794848,0.05993785216813318,2.0,1.0,1.0,0.5,0.021275261260613812,0.059329886771544896,28.0,13.0,15.0,0.4642857142857143,1.736277132907878,0.05929795843658512,17.0,9.0,8.0,0.5294117647058824,0.36256516754980617,0.05906258529449159,71.0,38.0,33.0,0.5352112676056338,,,,0.0,25052.0,25057.0,25147.0,25150.0,25172.0,25199.0,25211.0,25224.0,25454.0,25525.0
24,24,26045.424660900142,0.17790039967106272,2.5479654008640567,26146.347458290416,-0.13412453525883697,2.5479654008640567,26185.50285864485,1.7815046665450844,11.08128775687796,26217.72601729957,-0.24812678712803557,7.343682729889331,26491.992366712904,0.509505682088282,37.36976994101249,0.9601438928418257,102.0,98.0,78.0,301.0,379.0,4.0,989.0,998.0,4.0,3.0,1.0,0.75,0.21892712038235837,0.06241412250748823,3.0,2.0,1.0,0.6666666666666666,0.1457185330756548,0.06444420682866847,27.0,14.0,13.0,0.5185185185185185,1.71189829248844,0.065233185946757,13.0,7.0,6.0,0.5384615384615384,0.4364131035870467,0.06480528844720183,88.0,40.0,48.0,0.45454545454545453,,,,0.0,26042.0,26046.0,26144.0,26147.0,26172.0,26198.0,26214.0,26222.0,26456.0,26523.0
25,25,27048.849321800284,0.11933132076461235,5.095930801711751,27115.08391353633,-0.1771863894037368,0.35785833397932826,27185.68007840307,1.7705748677252011,10.976416243886277,27216.150678199716,-0.30858755978698216,5.095930801617676,27492.252287918258,0.4851091765704261,37.90843903698098,0.9598712485124504,69.0,64.0,106.0,308.0,414.0,5.0,1003.0,1001.0,11.0,4.0,7.0,0.36363636363636365,0.0846030608883661,0.05397787936252723,2.0,1.0,1.0,0.5,0.20233417436807194,0.056818977000623855,28.0,14.0,14.0,0.5,1.699733641672009,0.05835196638387256,8.0,4.0,4.0,0.5,0.5546034475542099,0.058201226920960865,85.0,44.0,41.0,0.5176470588235295,,,,0.0,27045.0,27050.0,27114.0,27116.0,27172.0,27200.0,27215.0,27220.0,27461.0,27528.0
26,26,28040.300109558953,0.12648954250748257,2.5479654008640567,28099.621466169985,-0.4636642707111578,0.24064020797177868,28185.686082319244,1.7733653889666805,11.032712059054088,28216.30135639943,-0.3216542501364175,6.809052436758016,28491.624043060117,0.5061669761567374,36.91954254324142,0.9587245179381327,60.0,57.0,123.0,302.0,425.0,3.0,992.0,1001.0,3.0,1.0,2.0,0.3333333333333333,0.18804534305227077,0.06443281793335928,2.0,1.0,1.0,0.5,0.07903788876747188,0.06087508048711179,27.0,14.0,13.0,0.5185185185185185,1.7119864767131694,0.07871029483267232,14.0,5.0,9.0,0.35714285714285715,0.5661727277157923,0.06245271093748306,63.0,31.0,32.0,0.49206349206349204,,,,0.0,28039.0,28042.0,28099.0,28101.0,28172.0,28199.0,28211.0,28222.0,28461.0,28524.0
27,27,29044.424660899538,0.1511341979598024,2.5479617311056133,29104.300929476038,-0.3509371559637579,0.21943043741164653,29185.449588419167,1.775164340567735,10.87931567755425,29215.424650432273,-0.39076877114507536,2.5479654002867016,29491.010212039324,0.49810002502674144,37.2135673908383,0.9575719310352226,60.0,57.0,119.0,303.0,422.0,3.0,1004.0,998.0,3.0,1.0,2.0,0.3333333333333333,0.20769879792286886,0.058779238831006025,2.0,1.0,1.0,0.5,0.14621957231633828,0.058752719984164585,28.0,13.0,15.0,0.4642857142857143,1.7440596611478987,0.05908913217885612,8.0,1.0,7.0,0.125,0.6719030560944442,0.05899725685391557,101.0,51.0,50.0,0.504950495049505,,,,0.0,29043.0,29046.0,29103.0,29105.0,29172.0,29200.0,29214.0,29222.0,29463.0,29525.0
28,28,30048.365160055248,0.17769419669505515,2.5479654008640567,30133.575352882774,-0.9351292244396001,0.23254114911190926,30185.480646943826,1.7462877871357538,11.03876086458578,30216.418447664997,-0.30108967058822916,5.095930801728113,30493.03348117482,0.5108565267574963,36.72566842565557,0.9591832665766102,86.0,84.0,86.0,312.0,398.0,2.0,1004.0,1002.0,2.0,1.0,1.0,0.5,0.2194944610602416,0.061895937127918965,2.0,1.0,1.0,0.5,0.2121865239183892,0.06174542645406731,29.0,14.0,15.0,0.4827586206896552,1.7906394466916833,0.0612224349653608,12.0,5.0,7.0,0.4166666666666667,0.6339033215812564,0.06131592400267127,82.0,41.0,41.0,0.5,,,,0.0,30047.0,30049.0,30133.0,30135.0,30172.0,30198.0,30213.0,30219.0,30457.0,30531.0
29,29,32059.92400714188,0.1499388927634105,0.4296925700479612,32125.577173229933,-0.5159218404462343,0.26680242465396586,32185.592756122074,1.745297532604365,10.970303690079954,32216.671181732076,-0.33114990829376434,5.09576753076195,32489.219233335545,0.49628949778784187,35.50805727271126,0.9603261171968701,66.0,64.0,94.0,303.0,397.0,2.0,2012.0,1996.0,2.0,1.0,1.0,0.5,0.11475241189620043,0.05492795930134242,2.0,1.0,1.0,0.5,0.11053018396171937,0.05492795930134242,27.0,14.0,13.0,0.5185185185185185,1.7039877218374921,0.05492795930134242,5.0,3.0,2.0,0.6,0.6742510312933674,0.05492795930134242,78.0,38.0,40.0,0.48717948717948717,,,,0.0,32059.0,32061.0,32125.0,32127.0,32172.0,32199.0,32214.0,32219.0,32465.0,32522.0
30,30,33042.424660900135,0.157123599869259,2.54796537870043,33127.82875574874,-0.1469223718929601,0.5136353309707571,33185.5905542422,1.7492004718754477,10.823635435408168,33216.01276289541,-0.3239666385277784,5.636672160526545,33490.77526153245,0.4882064063209301,35.07094704694744,0.9553869256633273,86.0,80.0,95.0,303.0,398.0,6.0,982.0,1004.0,6.0,1.0,5.0,0.16666666666666666,0.23855608702611225,0.05801242848027658,2.0,1.0,1.0,0.5,0.1045511442979222,0.05764443030222956,27.0,14.0,13.0,0.5185185185185185,1.7148227184719262,0.058302702093919245,11.0,5.0,6.0,0.45454545454545453,0.6952717682273627,0.05898584427209411,87.0,45.0,42.0,0.5172413793103449,,,,0.0,33041.0,33047.0,33127.0,33129.0,33172.0,33198.0,33211.0,33222.0,33457.0,33525.0
31,31,34054.575339099865,0.16698776665332407,1.3391507037107895,34133.25272883037,-0.3259966403053698,0.23870388380046106,34185.793786328075,1.747120251514891,11.104293629980921,34215.08433436122,-0.30239921598901304,6.4942256686108735,34491.83547596065,0.4923142208591517,35.31578005106866,0.960562055027329,80.0,76.0,88.0,296.0,384.0,4.0,1013.0,998.0,4.0,3.0,1.0,0.75,0.19521205450009788,0.055139243945096145,2.0,1.0,1.0,0.5,0.2028253920918924,0.05504417911899495,28.0,14.0,14.0,0.5,1.6341088593285031,0.0545578371230645,11.0,3.0,8.0,0.2727272727272727,0.656424553008818,0.05465984803733047,74.0,37.0,37.0,0.5,,,,0.0,34052.0,34056.0,34132.0,34134.0,34172.0,34200.0,34212.0,34220.0,34462.0,34516.0
32,32,34811.15194808207,368.29344589967354,0.03829093851292611,35082.92256824404,-0.13898359728581533,0.5287303386155091,35185.57015476832,1.7331965057517507,10.852306224135328,35215.83741545833,-0.2897473505964052,6.452236086375709,35496.90406919828,0.5134470444366892,30.575584810368664,0.9480841023821317,272.0,270.0,141.0,291.0,432.0,2.0,756.0,999.0,2.0,1.0,1.0,0.5,0.16984556105156684,0.057377026578541754,2.0,1.0,1.0,0.5,0.19453815907046412,0.0570901013934671,26.0,14.0,12.0,0.5384615384615384,1.7213386495810332,0.0570901013934671,12.0,5.0,7.0,0.4166666666666667,0.6993435640470014,0.0570901013934671,84.0,49.0,35.0,0.5833333333333334,,,,0.0,34810.0,34812.0,35082.0,35084.0,35173.0,35198.0,35211.0,35223.0,35457.0,35514.0
33,33,36062.14737850467,0.18900357855782254,0.6257475875521339,36132.42380916621,-0.4753426454446594,-0.26244601561586245,36185.56315763708,1.763650219548493,11.070084718132554,36215.24454447785,-0.2988926559172965,6.725932121129525,36492.1489861758,0.4936973585305189,36.96773913416541,0.9607909106230578,69.0,67.0,94.0,305.0,399.0,2.0,1251.0,1001.0,2.0,1.0,1.0,0.5,0.11211620405283954,0.06001557066207226,2.0,1.0,1.0,0.5,0.13019943831589348,0.05930079190242033,27.0,14.0,13.0,0.5185185185185185,1.7130046958989416,0.05969682889221793,15.0,4.0,11.0,0.26666666666666666,0.5736925572136223,0.05948035432676191,77.0,37.0,40.0,0.4805194805194805,,,,0.0,36061.0,36063.0,36130.0,36133.0,36172.0,36199.0,36213.0,36224.0,36458.0,36529.0
34,34,37044.42430116435,0.1437963440137245,2.547958101719228,37133.41401127115,-0.4375143307576648,0.2690667458259686,37185.75124087847,1.744308808872161,11.134492494918874,37216.221124603355,-0.3063287515403543,6.386686524479879,37492.11301243766,0.4888120127682555,35.71296642901835,0.9585572649110597,89.0,86.0,89.0,297.0,386.0,3.0,982.0,1001.0,3.0,1.0,2.0,0.3333333333333333,0.21259297658947304,0.057793697294846236,2.0,1.0,1.0,0.5,0.1490436293002612,0.057793697294846236,27.0,14.0,13.0,0.5185185185185185,1.7664341605138498,0.057793697294846236,10.0,5.0,5.0,0.5,0.718654559711289,0.057793697294846236,84.0,38.0,46.0,0.4523809523809524,,,,0.0,37043.0,37046.0,37132.0,37134.0,37172.0,37199.0,37211.0,37221.0,37464.0,37518.0
35,35,38036.95571418581,0.23627635728431928,0.5101225235533347,38146.57533968748,-0.09966110902590225,2.547965385783456,38185.48280821439,1.7453243021152707,10.953263960200392,38216.726017299574,-0.32235948610859505,5.969170040088011,38491.98831059386,0.49977529063136517,37.11567809807434,0.9567595828623894,110.0,108.0,75.0,301.0,376.0,2.0,993.0,1002.0,2.0,1.0,1.0,0.5,0.25277355980143235,0.059071480442972175,3.0,1.0,2.0,0.3333333333333333,0.06126957806585549,0.059071480442972175,28.0,13.0,15.0,0.4642857142857143,1.5747226069078089,0.059071480442972175,13.0,6.0,7.0,0.46153846153846156,0.6215454576235468,0.059071480442972175,65.0,27.0,38.0,0.4153846153846154,,,,0.0,38036.0,38038.0,38146.0,38149.0,38172.0,38198.0,38212.0,38221.0,38465.0,38522.0
36,36,39045.575339099865,0.15905343458391838,2.5479654006140136,39139.6321542717,-0.4128073170152692,0.25029848267861626,39185.95371702755,1.760960531291122,11.311868966736188,39214.38441049543,-0.27862266397978813,7.875797755014572,39491.91255179658,0.5039227116986025,37.14009248900357,0.9600786992151966,94.0,91.0,83.0,303.0,386.0,3.0,1009.0,997.0,3.0,1.0,2.0,0.3333333333333333,0.15972152279622742,0.059694650891229196,2.0,1.0,1.0,0.5,0.06345006930220315,0.05767875218234866,28.0,14.0,14.0,0.5,1.7547014046922902,0.05664826897122029,16.0,4.0,12.0,0.25,0.6178717457637178,0.05616466460982069,83.0,42.0,41.0,0.5060240963855421,,,,0.0,39045.0,39048.0,39139.0,39141.0,39173.0,39200.0,39211.0,39222.0,39450.0,39525.0
37,37,40064.57533910595,0.12515971641269505,2.5479654008639936,40152.90219462831,-0.15161408167747123,2.5479654008640567,40185.72210270661,1.7320813873137522,10.982377207259209,40214.849321800284,-0.2990827161629334,5.095930801728113,40491.12398307993,0.47101757719011866,33.787073937816906,0.9528417449480097,88.0,86.0,72.0,294.0,366.0,2.0,1019.0,1001.0,2.0,1.0,1.0,0.5,0.16660409468152734,0.05859126747164787,3.0,1.0,2.0,0.3333333333333333,0.08945259433132483,0.05798467492897116,28.0,14.0,14.0,0.5,1.7818726123962711,0.058161582404781725,15.0,3.0,12.0,0.2,0.6023178033281975,0.05797162052585607,71.0,33.0,38.0,0.4647887323943662,,,,0.0,40064.0,40066.0,40152.0,40155.0,40172.0,40200.0,40212.0,40224.0,40475.0,40518.0
38,38,41052.575339099865,0.13667540816255044,2.547965400864056,41153.57533910142,-0.14600958013470863,2.5479654008634203,41185.733279010325,1.7222857095606912,11.17197656571336,41216.085113845504,-0.27980364933700763,8.046164117530465,41485.06855710273,0.4699025729233984,35.00163004176675,0.953967357010711,104.0,99.0,72.0,302.0,374.0,5.0,988.0,997.0,5.0,4.0,1.0,0.8,0.11730955003607806,0.05898314340862506,2.0,1.0,1.0,0.5,0.0632479406868984,0.06014430944494489,29.0,15.0,14.0,0.5172413793103449,1.6327820911391004,0.05923402099852203,16.0,5.0,11.0,0.3125,0.5926130848706967,0.059540114022131926,78.0,36.0,42.0,0.46153846153846156,,,,0.0,41049.0,41054.0,41153.0,41155.0,41171.0,41197.0,41211.0,41225.0,41458.0,41527.0
39,39,42043.154727665016,0.2541322685751155,1.0391656351170564,42143.424660900135,-0.11221180442067424,1.295769054902035,42185.58607758779,1.7754415668567092,11.085258565600348,42217.30135639943,-0.2648069795759543,6.45749637977012,42492.49632132208,0.5123636708457829,37.51107248728058,0.9606429198669173,100.0,97.0,81.0,305.0,386.0,3.0,990.0,1004.0,3.0,1.0,2.0,0.3333333333333333,0.2673682657000562,0.06260132419026238,4.0,1.0,3.0,0.25,0.11071681848700124,0.06076534628867456,28.0,14.0,14.0,0.5,1.711262758516797,0.059624342334515384,14.0,6.0,8.0,0.42857142857142855,0.5191037937204774,0.05729068070555546,81.0,39.0,42.0,0.48148148148148145,,,,0.0,42042.0,42045.0,42142.0,42146.0,42172.0,42199.0,42212.0,42223.0,42459.0,42528.0
40,40,43056.057685509804,0.13629266466792195,2.5479654008640567,43128.84569803823,-0.09121304342673524,4.19672647259267,43185.612913075514,1.7647143944594605,10.922273520484419,43217.726017299574,-0.29672147996206244,6.3962532119318105,43492.053765153694,0.4797792758473376,36.3799546377793,0.9572586673540497,73.0,69.0,96.0,308.0,404.0,4.0,1013.0,998.0,4.0,3.0,1.0,0.75,0.14924561047685922,0.05768245805194119,6.0,3.0,3.0,0.5,0.12889794158662993,0.058071608316616515,26.0,14.0,12.0,0.5384615384615384,1.7261168171166563,0.05840982511412064,14.0,7.0,7.0,0.5,0.5007074470067383,0.05840982511412064,93.0,44.0,49.0,0.4731182795698925,,,,0.0,43053.0,43057.0,43126.0,43132.0,43173.0,43198.0,43214.0,43222.0,43463.0,43530.0
41,41,44043.863887134794,0.12971320973358305,2.547965400072402,44151.69212570111,-0.2697636678467817,0.29058055252207576,44185.691583342305,1.7661216017052848,10.899212065289836,44217.726017299574,-0.2845965306657428,6.573471528749974,44499.50678199713,0.4829080132877638,37.1599370642606,0.9550388706343261,108.0,105.0,71.0,306.0,377.0,3.0,988.0,1000.0,3.0,1.0,2.0,0.3333333333333333,0.16806035275242742,0.05892611486708904,2.0,1.0,1.0,0.5,0.10223180150764943,0.061367375634533934,28.0,14.0,14.0,0.5,1.7282601338795929,0.06269725983421838,17.0,8.0,9.0,0.47058823529411764,0.41692206274381705,0.0627013068451295,83.0,53.0,30.0,0.6385542168674698,,,,0.0,44043.0,44046.0,44151.0,44153.0,44172.0,44200.0,44212.0,44222.0,44455.0,44528.0
42,42,45053.575339101386,0.13714995337877167,2.547965400101854,45108.57534193528,-0.31465424320105484,-0.3133532261604086,45185.63806947365,1.7802685359587545,10.760256085520375,45217.726017299574,-0.2528271718641971,7.643896180462716,45491.62974218959,0.4793747276684741,36.6426030481387,0.958320578773403,55.0,52.0,114.0,303.0,417.0,3.0,1010.0,1000.0,3.0,1.0,2.0,0.3333333333333333,0.19532161801701314,0.05894116046151221,2.0,1.0,1.0,0.5,0.10537792741404589,0.060182816481875887,27.0,14.0,13.0,0.5185185185185185,1.649778285760695,0.06745474530254957,10.0,6.0,4.0,0.6,0.4890288421243388,0.06330818089454103,88.0,44.0,44.0,0.5,,,,0.0,45053.0,45056.0,45108.0,45111.0,45172.0,45199.0,45212.0,45222.0,45459.0,45525.0
43,43,46049.575339099865,0.16040820341539716,2.5479653774346844,46146.42437254281,-0.6778269152168805,0.2483680792877487,46185.83484001722,1.7385143098803455,11.137535421094261,46215.9666867826,-0.3176118447838549,7.579377259868167,46491.347458869765,0.47111627753945023,35.96163044025314,0.9536099224086385,98.0,94.0,78.0,295.0,373.0,4.0,996.0,1002.0,4.0,3.0,1.0,0.75,0.14629317411133191,0.0589819874920494,2.0,1.0,1.0,0.5,0.10167988011751508,0.05958839149046514,27.0,14.0,13.0,0.5185185185185185,1.675043394602242,0.060802265323801785,17.0,7.0,10.0,0.4117647058823529,0.6061426662473638,0.06076682461228831,83.0,39.0,44.0,0.46987951807228917,,,,0.0,46047.0,46051.0,46145.0,46147.0,46172.0,46199.0,46212.0,46223.0,46462.0,46518.0
44,44,47036.991560995,0.13621962189248268,0.49701793426621316,47132.90242012521,-0.16429311478790037,0.5583513514358762,47185.53177004954,1.7339324248664112,11.14559465279217,47215.91915653877,-0.3117244578163155,6.58025782233415,47492.3849134243,0.4853615337584466,34.55997779173089,0.9561585445526732,96.0,94.0,91.0,298.0,389.0,2.0,987.0,997.0,2.0,1.0,1.0,0.5,0.18854797232158804,0.059504803766721355,2.0,1.0,1.0,0.5,0.1071138997145629,0.05982283112098937,28.0,15.0,13.0,0.5357142857142857,1.656457715429624,0.05856473483986764,11.0,4.0,7.0,0.36363636363636365,0.6888671044385437,0.05778029126855231,82.0,40.0,42.0,0.4878048780487805,,,,0.0,47036.0,47038.0,47132.0,47134.0,47172.0,47199.0,47212.0,47223.0,47465.0,47521.0
45,45,48073.04130331379,0.19863585849128007,0.5765692819545416,48153.28004809967,-0.22062212411504045,0.44855914331981966,48185.823170634634,1.7407654612949612,11.149643553456428,48215.021352645184,-0.29676908059455376,8.42607547564797,48490.39018950801,0.49320599204472365,37.09305861163196,0.9584329484011394,80.0,78.0,71.0,302.0,373.0,2.0,1036.0,1003.0,2.0,1.0,1.0,0.5,0.16787282291262956,0.059203104364835515,2.0,1.0,1.0,0.5,0.08707718327444156,0.059203104364835515,27.0,14.0,13.0,0.5185185185185185,1.6517849579480575,0.059203104364835515,12.0,3.0,9.0,0.25,0.702726656345249,0.059203104364835515,76.0,38.0,38.0,0.5,,,,0.0,48072.0,48074.0,48152.0,48154.0,48172.0,48199.0,48212.0,48223.0,48452.0,48525.0
46,46,49040.37916085098,0.49171470629376796,0.2617255814224027,49150.424660900055,-0.14263390646064028,2.5479654008640567,49185.46280157176,1.7287954221459187,11.089702415525919,49216.28925100362,-0.29425474705632904,6.197700328332552,49491.21482647223,0.4714685669052606,35.20020451646573,0.9517737882756226,107.0,105.0,77.0,297.0,374.0,2.0,967.0,999.0,2.0,1.0,1.0,0.5,0.18508516411035314,0.06166815149839652,5.0,4.0,1.0,0.8,0.05123296324404811,0.06113303204033309,27.0,13.0,14.0,0.48148148148148145,1.7528853664405155,0.060736389094862925,11.0,4.0,7.0,0.36363636363636365,0.6443418183908578,0.0605968023966371,71.0,32.0,39.0,0.4507042253521127,,,,0.0,49039.0,49041.0,49146.0,49151.0,49172.0,49199.0,49212.0,49223.0,49459.0,49520.0
47,47,50042.575339099865,0.14551622134477837,2.5479654008640384,50149.333212437945,-0.29141984433604723,0.33958674305463354,50185.697811536666,1.7340524191408655,11.141753277472795,50214.849321800284,-0.3376587697071417,5.095930801728113,50491.53974089363,0.48125953588451054,35.086430714088216,0.953716039746477,106.0,104.0,72.0,311.0,383.0,2.0,1003.0,1001.0,2.0,1.0,1.0,0.5,0.27840142586043803,0.05992393344931636,2.0,1.0,1.0,0.5,0.04895996424517661,0.05950621096899483,29.0,15.0,14.0,0.5172413793103449,1.6206426957795317,0.05956251133011224,8.0,3.0,5.0,0.375,0.713120687974957,0.05956251133011224,89.0,45.0,44.0,0.5056179775280899,,,,0.0,50042.0,50044.0,50148.0,50150.0,50172.0,50200.0,50212.0,50220.0,50457.0,50531.0
48,48,51046.424660900135,0.18008322146952208,2.5479654008640567,51150.942181071754,-0.09858275733950882,2.547965400864056,51185.421868171004,1.7835266629028461,10.617656659068937,51220.575339099865,-0.2726224338908374,2.5479654008640567,51487.191861603445,0.4886321758130568,37.55776673965855,0.953265658157536,105.0,103.0,73.0,304.0,377.0,2.0,1003.0,997.0,2.0,1.0,1.0,0.5,0.1919437686225567,0.05857035956216271,2.0,1.0,1.0,0.5,0.01610730895017709,0.05927821750881741,29.0,14.0,15.0,0.4827586206896552,1.830876306189176,0.060179346456512774,3.0,1.0,2.0,0.3333333333333333,0.46545854482153914,0.061589227471715705,88.0,38.0,50.0,0.4318181818181818,,,,0.0,51045.0,51047.0,51150.0,51152.0,51172.0,51199.0,51220.0,51223.0,51453.0,51527.0
49,49,52057.3304299762,0.1546522302979844,2.5479654008640567,52147.575339099865,-0.3148473921254488,0.31653751978132627,52185.61298360023,1.7781466216041608,11.015588970445314,52215.49708260839,-0.32114701802692247,5.691780222195489,52492.00798781158,0.5010153785149376,37.148410496896275,0.9605936404806764,92.0,89.0,75.0,309.0,384.0,3.0,1011.0,1000.0,3.0,2.0,1.0,0.6666666666666666,0.16322737413826466,0.05858122116239548,2.0,1.0,1.0,0.5,0.026051599073281598,0.057767249145321636,28.0,15.0,13.0,0.5357142857142857,1.71737947147935,0.05759129472761971,11.0,4.0,7.0,0.36363636363636365,0.7053098563182176,0.05759129472761971,71.0,32.0,39.0,0.4507042253521127,,,,0.0,52055.0,52058.0,52147.0,52149.0,52172.0,52199.0,52211.0,52222.0,52460.0,52531.0
50,50,53048.424660900135,0.14102386818057125,2.547965400836472,53091.42466089792,-0.34887603292991465,0.36512090796591246,53185.82757789781,1.759980647923756,11.155690640647563,53214.96877067766,-0.31795796976956575,6.69885260202361,53492.39454349014,0.5197224750585767,37.196815700432836,0.9574456861766553,43.0,40.0,132.0,303.0,435.0,3.0,991.0,1003.0,3.0,1.0,2.0,0.3333333333333333,0.19838038392749244,0.05915252606757343,3.0,1.0,2.0,0.3333333333333333,0.2039298010585896,0.06590120058213214,28.0,14.0,14.0,0.5,1.7198246651423745,0.06971754222408763,14.0,5.0,9.0,0.35714285714285715,0.6303004108532395,0.0664016319191348,65.0,32.0,33.0,0.49230769230769234,,,,0.0,53047.0,53050.0,53090.0,53094.0,53173.0,53200.0,53211.0,53222.0,53460.0,53525.0
51,51,54044.575339099865,0.14477864613264188,2.5479654008453094,54082.424660899356,-0.34956765262603745,0.30186306867695845,54185.881436642616,1.7645089766844504,11.116579809540864,54215.45203460229,-0.2884622275470136,7.23926053087754,54492.17992436877,0.49850306331517136,37.633884669113804,0.9602233419880841,37.0,35.0,144.0,306.0,450.0,2.0,997.0,1001.0,2.0,1.0,1.0,0.5,0.20889151584615168,0.056499904116264044,2.0,1.0,1.0,0.5,0.14726266303309546,0.05905399909752119,28.0,14.0,14.0,0.5,1.700300789225726,0.05921295746706338,14.0,4.0,10.0,0.2857142857142857,0.5748975472067591,0.05911616007275946,70.0,31.0,39.0,0.44285714285714284,,,,0.0,54044.0,54046.0,54081.0,54083.0,54172.0,54199.0,54212.0,54225.0,54461.0,54531.0
52,52,55066.09632004651,0.11321536935307219,2.5479654008640567,55146.42466082236,-0.1014248073449279,2.5479654008640567,55185.43849831051,1.7736749232424072,10.884331608670188,55218.726017299574,-0.24071872522448623,7.291077744066362,55490.955840319424,0.510314540261768,37.8951288782741,0.957166611116739,80.0,78.0,78.0,291.0,369.0,2.0,1021.0,995.0,2.0,1.0,1.0,0.5,0.200681494085636,0.05910620175282134,3.0,1.0,2.0,0.3333333333333333,0.01428606867844226,0.05910620175282134,28.0,14.0,14.0,0.5,1.8470655210820914,0.05910620175282134,13.0,7.0,6.0,0.5384615384615384,0.45798966326642165,0.05910620175282134,93.0,47.0,46.0,0.5053763440860215,,,,0.0,55065.0,55067.0,55145.0,55148.0,55172.0,55199.0,55213.0,55223.0,55458.0,55514.0
53,53,56058.575339099865,0.13336451445714925,2.5479653825593824,56144.72864660213,-0.19405878827950201,0.6377332636222606,56185.698243666935,1.7834528425469576,10.95927007732276,56217.726017299574,-0.25512659012514105,6.317146442735483,56492.85370830827,0.5131001550486224,37.38831588095575,0.9595578424322452,85.0,82.0,79.0,308.0,387.0,3.0,993.0,1003.0,3.0,1.0,2.0,0.3333333333333333,0.1805638605362912,0.060751346355559004,3.0,2.0,1.0,0.6666666666666666,0.1563565118449412,0.060751346355559004,28.0,14.0,14.0,0.5,1.7646660248514219,0.060751346355559004,11.0,7.0,4.0,0.6363636363636364,0.43183045752583915,0.060751346355559004,90.0,46.0,44.0,0.5111111111111111,,,,0.0,56058.0,56061.0,56143.0,56146.0,56172.0,56200.0,56211.0,56222.0,56454.0,56530.0
54,54,57059.575339099865,0.09293798686510908,2.5479653873334773,57147.0713700313,-0.17876552598848655,0.7541144412663762,57185.84726553861,1.7515026463725003,10.922015899538746,57216.30135639943,-0.32416421783178806,8.031214882691849,57485.09593080172,0.5142230592102015,30.57558481036868,0.9474896466517465,87.0,85.0,76.0,303.0,379.0,2.0,1001.0,1001.0,2.0,1.0,1.0,0.5,0.11213336513007752,0.05975414546235642,2.0,1.0,1.0,0.5,0.0760286471410134,0.06098953368462902,26.0,13.0,13.0,0.5,1.6615892117801552,0.060693222014905374,18.0,6.0,12.0,0.3333333333333333,0.5957620041409848,0.06119894084646379,74.0,30.0,44.0,0.40540540540540543,,,,0.0,57059.0,57061.0,57146.0,57148.0,57173.0,57199.0,57213.0,57222.0,57468.0,57525.0
55,55,58041.575339099865,0.13673886685837397,2.5479654008640567,58149.83017675533,-0.12542100182945634,2.5479654008640567,58185.697236152904,1.7631512037928274,11.16754346799751,58216.30135639943,-0.3071623467041611,6.079257346841602,58491.760099501895,0.5025675998110747,38.59002881814399,0.9576155001154218,108.0,106.0,73.0,304.0,377.0,2.0,982.0,997.0,2.0,1.0,1.0,0.5,0.1559218438442001,0.058066779132135427,2.0,1.0,1.0,0.5,0.016663743958751698,0.0581816628082349,28.0,14.0,14.0,0.5,1.699756094616965,0.058327673531627086,11.0,5.0,6.0,0.45454545454545453,0.5636371676818372,0.057876335275172205,81.0,47.0,34.0,0.5802469135802469,,,,0.0,58041.0,58043.0,58149.0,58151.0,58172.0,58200.0,58211.0,58222.0,58455.0,58526.0
56,56,59049.68882266479,0.11717165951818669,7.643895336102671,59151.575339099865,-0.13458461331667484,1.0939248896899965,59185.76885547393,1.7410323410103297,11.243919212280128,59215.32083816002,-0.3514202058296978,6.093013473591651,59494.08212109698,0.48952297976292913,37.00584998834706,0.9624381124923431,103.0,96.0,73.0,301.0,374.0,7.0,1008.0,1004.0,7.0,3.0,4.0,0.42857142857142855,0.17359527618829046,0.05757293648783771,3.0,2.0,1.0,0.6666666666666666,0.07316288325742043,0.05632614442943804,29.0,15.0,14.0,0.5172413793103449,1.6747631811494315,0.05787994946453324,15.0,5.0,10.0,0.3333333333333333,0.6764026777980514,0.05768209465375608,76.0,40.0,36.0,0.5263157894736842,,,,0.0,59047.0,59054.0,59150.0,59153.0,59171.0,59199.0,59212.0,59223.0,59463.0,59524.0
57,57,60055.835407544575,0.16400115802940352,2.5479654008640567,60144.424660900135,-0.2908355671770643,0.36232043043346773,60185.74181071961,1.7642821481573845,11.095407789764698,60215.07094164863,-0.2830003897980065,6.636045351975384,60491.61171569913,0.5141559707405889,37.53841653034641,0.9586996015145071,91.0,86.0,80.0,303.0,383.0,5.0,1006.0,997.0,5.0,4.0,1.0,0.8,0.21171539181349522,0.0596239594705655,3.0,1.0,2.0,0.3333333333333333,0.049197057534644366,0.0596239594705655,29.0,15.0,14.0,0.5172413793103449,1.6666674818686287,0.0596239594705655,16.0,5.0,11.0,0.3125,0.5372135432624793,0.0596239594705655,70.0,36.0,34.0,0.5142857142857142,,,,0.0,60052.0,60057.0,60143.0,60146.0,60171.0,60200.0,60211.0,60223.0,60456.0,60526.0
58,58,61046.575339099865,0.11060258348626097,2.5479654008640567,61139.849321800284,-0.08476900239131359,2.067459317112312,61185.76183154067,1.75638938237632,11.254949271294747,61214.70755614206,-0.321336176032455,6.985191521516987,61490.42518039709,0.491914942657988,37.2577959347443,0.9606069396841826,91.0,87.0,86.0,300.0,386.0,4.0,991.0,999.0,4.0,1.0,3.0,0.25,0.17331656937984502,0.05760001681367555,6.0,2.0,4.0,0.3333333333333333,0.047409541095277626,0.05660468605717014,29.0,15.0,14.0,0.5172413793103449,1.6992420865932343,0.05609803565668549,13.0,5.0,8.0,0.38461538461538464,0.6239142148968062,0.056741752555294046,76.0,42.0,34.0,0.5526315789473685,,,,0.0,61046.0,61050.0,61137.0,61143.0,61171.0,61200.0,61211.0,61223.0,61451.0,61523.0
59,59,62043.19850492113,0.13566315361515685,2.5479654008640567,62135.575339099865,-0.38206411977578897,0.30767661396411566,62185.5481189812,1.7505741222634277,11.31805213532335,62215.66578056005,-0.3040926646531746,7.0270326754501395,62491.742886544875,0.49858940000596336,36.253158169893744,0.9601305900919934,94.0,91.0,89.0,305.0,394.0,3.0,996.0,1001.0,3.0,2.0,1.0,0.6666666666666666,0.17270630735543668,0.06021654311419778,2.0,1.0,1.0,0.5,0.18245664315798193,0.05904111571321355,27.0,14.0,13.0,0.5185185185185185,1.6889064994096832,0.06034845160437439,11.0,3.0,8.0,0.2727272727272727,0.7880012271316769,0.05982508052358568,81.0,40.0,41.0,0.49382716049382713,,,,0.0,62041.0,62044.0,62135.0,62137.0,62172.0,62198.0,62213.0,62224.0,62462.0,62529.0
60,60,63051.424660900135,0.10788662090950014,2.5479647953262323,63125.01091490545,-0.19456161950716105,0.8736577445152973,63185.46383888011,1.7775054394135443,10.57088498076697,63217.575339099865,-0.3386670922395997,2.5479653988650286,63492.178890493575,0.4785353211000793,34.12635947204277,0.9541236963625828,74.0,72.0,95.0,310.0,405.0,2.0,1008.0,998.0,2.0,1.0,1.0,0.5,0.10110621062886876,0.061858653238525935,2.0,1.0,1.0,0.5,0.2621761002545012,0.0632890212948225,27.0,12.0,15.0,0.4444444444444444,1.7947746965620655,0.06496929451005767,6.0,5.0,1.0,0.8333333333333334,0.6486244398594986,0.06492870566951696,75.0,37.0,38.0,0.49333333333333335,,,,0.0,63050.0,63052.0,63124.0,63126.0,63173.0,63200.0,63213.0,63219.0,63469.0,63529.0
61,61,64045.600943858364,0.1342481413887448,2.5479654008640567,64143.31816546315,-0.14287494327580577,0.5784170383345444,64185.44659686014,1.7562521677520198,10.758215972889074,64214.424660900135,-0.42250596355621167,2.5479654008640567,64492.47636672467,0.4829465295390932,35.5666588594366,0.951857196894937,97.0,95.0,80.0,305.0,385.0,2.0,995.0,1004.0,2.0,1.0,1.0,0.5,0.16233969726535163,0.05854620989876356,4.0,1.0,3.0,0.25,0.06327477647262031,0.059166125470313705,28.0,14.0,14.0,0.5,1.7814640062800067,0.07079187449612431,9.0,1.0,8.0,0.1111111111111111,0.8185985800760616,0.0665197796447536,83.0,40.0,43.0,0.4819277108433735,,,,0.0,64045.0,64047.0,64142.0,64146.0,64171.0,64199.0,64213.0,64222.0,64459.0,64527.0
62,62,64896.2516346783,5.654537318706374,0.09408034865784194,65150.4072588826,-0.18475801687760937,0.5343005421955063,65185.58996297293,1.7483087454276696,10.987381420662564,65216.45205486257,-0.32553645087591765,5.790922100206625,65493.2327992967,0.49084395679271164,37.56297384917931,0.9559185698698449,254.0,252.0,76.0,301.0,377.0,2.0,850.0,998.0,2.0,1.0,1.0,0.5,0.15625400063066747,0.06044356148481512,3.0,1.0,2.0,0.3333333333333333,0.02186944964352834,0.06044356148481512,28.0,15.0,13.0,0.5357142857142857,1.5980967725473698,0.06044356148481512,17.0,6.0,11.0,0.35294117647058826,0.4512247380912734,0.06044356148481512,72.0,39.0,33.0,0.5416666666666666,,,,0.0,64895.0,64897.0,65149.0,65152.0,65173.0,65199.0,65212.0,65225.0,65454.0,65526.0
63,63,66047.69864360057,0.11115589159083371,10.191861603456227,66144.34148700083,-0.37806841375310674,0.30028493656918925,66185.60946784289,1.7354113500186434,11.19523930410831,66215.48705309954,-0.31776527098076846,5.956112811220742,66488.61652250358,0.493118333429317,37.72202379931086,0.9623494087534928,102.0,93.0,80.0,307.0,387.0,9.0,1150.0,1001.0,12.0,10.0,2.0,0.8333333333333334,0.2547786136076418,0.057745377560847945,2.0,1.0,1.0,0.5,0.09659937637050132,0.057745377560847945,27.0,14.0,13.0,0.5185185185185185,1.7916332125259862,0.057745377560847945,12.0,4.0,8.0,0.3333333333333333,0.6145886519011002,0.057745377560847945,90.0,43.0,47.0,0.4777777777777778,,,,0.0,66041.0,66050.0,66143.0,66145.0,66172.0,66199.0,66212.0,66223.0,66453.0,66530.0
64,64,69039.87942555895,0.15812002649314078,0.7160407075592736,69138.57533956657,-0.32032110048772267,0.3428336990030131,69185.74860056766,1.7562936134306684,10.957579433331105,69215.72378508314,-0.3411156577333793,5.454431964858506,69492.44203058568,0.48304488597806083,37.292149891968215,0.9563035321159039,98.0,96.0,84.0,315.0,399.0,2.0,2994.0,3001.0,2.0,1.0,1.0,0.5,0.15198919389508236,0.058074292560275145,3.0,2.0,1.0,0.6666666666666666,0.18985322777271163,0.05765879128912183,27.0,14.0,13.0,0.5185185185185185,1.7536776738617084,0.05780473528170939,9.0,4.0,5.0,0.4444444444444444,0.719025889341488,0.05780473528170939,88.0,35.0,53.0,0.3977272727272727,,,,0.0,69039.0,69041.0,69137.0,69140.0,69173.0,69199.0,69212.0,69221.0,69462.0,69536.0
65,65,70035.27398270041,0.11902043979594798,7.643896202553307,70102.73165964705,-0.13642502239550572,0.7662982187291536,70185.79549230545,1.7570787553342095,11.093371805720327,70215.22443161535,-0.2854837517289941,6.53727573106641,70491.9205990675,0.5205451023157264,36.898532572605596,0.9617680740926062,70.0,62.0,121.0,301.0,422.0,8.0,994.0,997.0,10.0,4.0,6.0,0.4,0.1763876395998892,0.05660198689258384,3.0,2.0,1.0,0.6666666666666666,0.11843364467040464,0.05660198689258384,28.0,14.0,14.0,0.5,1.7516908675582075,0.05660198689258384,13.0,3.0,10.0,0.23076923076923078,0.5249096719358156,0.05660198689258384,82.0,36.0,46.0,0.43902439024390244,,,,0.0,70031.0,70039.0,70101.0,70104.0,70172.0,70200.0,70212.0,70222.0,70458.0,70523.0
66,66,71053.57533909987,0.1664404579250414,2.5479654008640567,71097.74374382036,-5.85200306372184,0.09069826602954469,71185.68764996738,1.7933153078516655,11.082278760292684,71217.30135639943,-0.27533016145276196,5.886832042963048,71491.93281891228,0.5153787128471832,40.11862261499745,0.9604477908426587,44.0,42.0,126.0,304.0,430.0,2.0,1020.0,1002.0,2.0,1.0,1.0,0.5,0.22995990091723104,0.05750980237241237,2.0,1.0,1.0,0.5,0.07720649188838843,0.05750980237241237,27.0,14.0,13.0,0.5185185185185185,1.7957959403709784,0.05750980237241237,11.0,5.0,6.0,0.45454545454545453,0.5306085274162521,0.05750980237241237,93.0,48.0,45.0,0.5161290322580645,,,,0.0,71053.0,71055.0,71097.0,71100.0,71172.0,71199.0,71212.0,71223.0,71457.0,71527.0
67,67,72048.84932180027,0.13037168390618495,5.095930784486178,72105.27386592528,-0.1592165020264024,0.521930205210314,72185.78311647085,1.7473515597394922,11.037453863848858,72215.97532532147,-0.2970473049433849,7.387734435847536,72492.4488090897,0.4735162552024269,36.9712482206039,0.9636696957671156,58.0,53.0,117.0,310.0,427.0,5.0,994.0,1000.0,9.0,3.0,6.0,0.3333333333333333,0.12413966894741182,0.0564365227576332,2.0,1.0,1.0,0.5,0.16852257077602997,0.0564365227576332,27.0,14.0,13.0,0.5185185185185185,1.7166626308688675,0.0564365227576332,9.0,4.0,5.0,0.4444444444444444,0.6259823242359213,0.0564365227576332,85.0,43.0,42.0,0.5058823529411764,,,,0.0,72046.0,72051.0,72104.0,72106.0,72172.0,72199.0,72212.0,72221.0,72452.0,72531.0
68,68,73064.42466090013,0.12329740898490509,2.5479654008640567,73154.35272663107,-0.19554098972139772,0.4499712439866558,73185.61467414393,1.7585669311433008,10.90770552348887,73216.30135639943,-0.2597335647364626,6.598773223163006,73491.65998978319,0.48945411854741017,37.63903935206422,0.9587776803355063,90.0,87.0,69.0,309.0,378.0,3.0,1016.0,1002.0,3.0,1.0,2.0,0.3333333333333333,0.13844123974864989,0.06001566928637534,2.0,1.0,1.0,0.5,0.16218721633635258,0.059340926846714555,27.0,14.0,13.0,0.5185185185185185,1.7321696138519922,0.0586319116982699,11.0,5.0,6.0,0.45454545454545453,0.5422565220806012,0.05918053760652944,83.0,41.0,42.0,0.4939759036144578,,,,0.0,73063.0,73066.0,73153.0,73155.0,73172.0,73199.0,73212.0,73222.0,73455.0,73531.0
69,69,74031.42466090013,0.1136989664944864,2.54795991266284,74130.42466089496,-0.3587854254953673,0.3283953899866406,74185.59655093291,1.764655234604956,11.138524056937605,74216.1711938668,-0.2886266277102255,6.762100301686792,74492.92354935162,0.48844548495968665,36.36419678500243,0.9585956162216764,99.0,95.0,95.0,301.0,396.0,4.0,967.0,997.0,4.0,1.0,3.0,0.25,0.203944023966736,0.06076580966450992,2.0,1.0,1.0,0.5,0.18974159492252474,0.06462009978667453,29.0,15.0,14.0,0.5172413793103449,1.6639721978340214,0.06108894332550134,12.0,4.0,8.0,0.3333333333333333,0.5527365146809095,0.05904252529848151,68.0,36.0,32.0,0.5294117647058824,,,,0.0,74030.0,74034.0,74129.0,74131.0,74172.0,74199.0,74212.0,74224.0,74462.0,74525.0
70,70,75011.7632732116,0.19630393191953363,0.4075823379241162,75079.91995502819,-0.13013541118503563,0.769678317283503,75185.58704261575,1.7560474159012929,10.804580333136535,75212.42466090013,-0.322459624494705,2.5479654008640567,75491.76720070308,0.49050395818539094,37.57714343416912,0.9559095651571105,68.0,66.0,145.0,306.0,451.0,2.0,981.0,1000.0,2.0,1.0,1.0,0.5,0.14907858758175985,0.055551168642461186,2.0,1.0,1.0,0.5,0.14044884313359265,0.055551168642461186,29.0,15.0,14.0,0.5172413793103449,1.603817546019077,0.055551168642461186,13.0,1.0,12.0,0.07692307692307693,0.8347419061431902,0.055551168642461186,97.0,47.0,50.0,0.4845360824742268,,,,0.0,75011.0,75013.0,75079.0,75081.0,75172.0,75199.0,75211.0,75224.0,75459.0,75530.0
71,71,76039.0020885418,0.17114885109598837,0.7737575723924536,76147.63991928284,-0.22649306641660036,0.6406134441062867,76185.89472285644,1.7335059958279493,11.486997352143202,76215.58354397399,-0.2811493234650644,7.443484730905307,76491.30464773685,0.4903546425824213,36.749712003692046,0.9599490112953375,108.0,106.0,76.0,300.0,376.0,2.0,1027.0,1001.0,2.0,1.0,1.0,0.5,0.14137309170147366,0.05734728692732046,3.0,2.0,1.0,0.6666666666666666,0.08088719075346387,0.05734728692732046,27.0,14.0,13.0,0.5185185185185185,1.7541101798667986,0.05734728692732046,10.0,4.0,6.0,0.4,0.6788089788408085,0.05734728692732046,86.0,42.0,44.0,0.4883720930232558,,,,0.0,76038.0,76040.0,76146.0,76149.0,76172.0,76199.0,76212.0,76222.0,76455.0,76522.0
72,72,77053.42466075072,0.17714336165886704,2.5479649090499303,77097.26677548369,-0.12127263137579915,0.8102714960597291,77185.42203490341,1.7502945901009443,11.185600617918963,77216.15067819983,-0.32175678939967806,5.095930623985158,77491.72412060709,0.4926322895429286,36.941281241111525,0.9602787574154065,44.0,42.0,123.0,307.0,430.0,2.0,1014.0,1001.0,2.0,1.0,1.0,0.5,0.15171883824001636,0.056885062841694006,3.0,1.0,2.0,0.3333333333333333,0.15410160546801133,0.056885062841694006,29.0,14.0,15.0,0.4827586206896552,1.690213080754047,0.056885062841694006,9.0,3.0,6.0,0.3333333333333333,0.5613670900518987,0.056885062841694006,87.0,43.0,44.0,0.4942528735632184,,,,0.0,77052.0,77054.0,77096.0,77099.0,77172.0,77199.0,77213.0,77219.0,77458.0,77526.0
73,73,78072.13088630141,0.18395475442413672,0.44561556053245377,78124.69514485371,-0.14433714759272417,0.7117478303176372,78185.68963558733,1.7600979341005794,11.094928971289656,78215.01977643427,-0.3010462642499463,5.933128575543614,78492.19915253994,0.49871855249618124,36.46303947289819,0.9570594466590112,52.0,50.0,98.0,307.0,405.0,2.0,1019.0,996.0,2.0,1.0,1.0,0.5,0.14266160226000552,0.05910676868678988,3.0,2.0,1.0,0.6666666666666666,0.15349172729321542,0.05910676868678988,28.0,14.0,14.0,0.5,1.7153649964142765,0.05910676868678988,9.0,3.0,6.0,0.3333333333333333,0.7282204746469718,0.05910676868678988,77.0,36.0,41.0,0.4675324675324675,,,,0.0,78071.0,78073.0,78123.0,78126.0,78172.0,78200.0,78212.0,78221.0,78466.0,78528.0
74,74,79055.57533909987,0.13896484266532366,2.5479617541927384,79148.4246608921,-0.3525121938713444,0.3246094671531773,79185.502463533,1.7900341115066523,10.534346211835722,79221.57533909987,-0.27641729045622626,2.5479654008640567,79492.21819289698,0.496111997023231,35.13858739408516,0.9503722497278291,92.0,90.0,76.0,299.0,375.0,2.0,984.0,1004.0,2.0,1.0,1.0,0.5,0.18530160623203348,0.06391091416018455,2.0,1.0,1.0,0.5,0.039057506051103016,0.05943867487130317,26.0,13.0,13.0,0.5,1.721664951234062,0.07895644632308664,2.0,1.0,1.0,0.5,0.39073738392505675,0.06627487554439697,77.0,41.0,36.0,0.5324675324675324,,,,0.0,79055.0,79057.0,79147.0,79149.0,79173.0,79199.0,79221.0,79223.0,79457.0,79522.0
75,75,80041.42463346953,0.10989267134624976,2.5467139592193098,80102.87926214066,-0.21643560679316606,0.1267811213567347,80185.68998678323,1.7442008312401174,11.096390205538663,80215.53823313388,-0.31623434867608496,6.353349577073429,80491.91748966764,0.4809167438598803,36.30283187161113,0.9583249726188244,62.0,60.0,119.0,302.0,421.0,2.0,985.0,999.0,2.0,1.0,1.0,0.5,0.18348312760258806,0.0580924226191232,2.0,1.0,1.0,0.5,0.1160846757941418,0.0580924226191232,27.0,15.0,12.0,0.5555555555555556,1.8190607038298139,0.0580924226191232,10.0,5.0,5.0,0.5,0.7619573589340798,0.0580924226191232,87.0,41.0,46.0,0.47126436781609193,,,,0.0,80040.0,80042.0,80102.0,80104.0,80171.0,80198.0,80211.0,80221.0,80462.0,80523.0
76,76,81055.57533909987,0.11274241920357086,2.547965400863944,81150.42466089418,-0.09572200577234317,2.5479654008640567,81185.47132215736,1.7369441673535515,11.301019404347278,81215.36113204759,-0.2974070250430926,6.686794360441441,81500.08212109699,0.4721037194403687,36.99090232713937,0.9551015644870008,94.0,92.0,75.0,306.0,381.0,2.0,1015.0,1002.0,2.0,1.0,1.0,0.5,0.12240638630396523,0.05852366125753277,3.0,1.0,2.0,0.3333333333333333,0.06307080191356129,0.05987115351357705,27.0,14.0,13.0,0.5185185185185185,1.7678259548278847,0.05951332853387042,11.0,2.0,9.0,0.18181818181818182,0.6064588683007689,0.05951357302048303,84.0,51.0,33.0,0.6071428571428571,,,,0.0,81055.0,81057.0,81149.0,81152.0,81171.0,81198.0,81213.0,81224.0,81461.0,81530.0
77,77,82062.57533909987,0.11882549785110114,2.5479654008640567,82143.84931578785,-0.09934095237006671,5.095930801728112,82185.73973373312,1.7659660557378594,11.064859019921437,82216.17993518108,-0.31985933700695773,5.97807536962621,82491.54500587493,0.496147266265207,36.2448760593198,0.9619693899101089,79.0,77.0,82.0,299.0,381.0,2.0,1007.0,997.0,2.0,1.0,1.0,0.5,0.13146153631506,0.055395336296331435,5.0,3.0,2.0,0.6,0.01803354576280928,0.03711588192801819,27.0,14.0,13.0,0.5185185185185185,1.7769863638762524,0.07479785702799317,12.0,5.0,7.0,0.4166666666666667,0.5870697088077523,0.04865050795379918,69.0,33.0,36.0,0.4782608695652174,,,,0.0,82062.0,82064.0,82141.0,82145.0,82172.0,82199.0,82212.0,82223.0,82459.0,82522.0
78,78,83060.15067819973,0.08191500852908008,5.095921797650769,83140.308299185,-0.16994350748467457,0.5733717581888853,83185.73513143424,1.749826113103326,10.78325118991569,83214.84932180027,-0.35793089526046673,5.095930801728113,83482.79457440229,0.4612423771402749,36.919049166325145,0.9517840311804393,80.0,76.0,82.0,303.0,385.0,4.0,998.0,998.0,6.0,3.0,3.0,0.5,0.08516644975981846,0.044819093963092395,3.0,1.0,2.0,0.3333333333333333,0.10065755349909694,0.0727218411734449,27.0,14.0,13.0,0.5185185185185185,1.6505861967163198,0.08774109458339421,16.0,5.0,11.0,0.3125,0.5949757626891192,0.08315631571429848,64.0,23.0,41.0,0.359375,,,,0.0,83059.0,83063.0,83139.0,83142.0,83172.0,83199.0,83212.0,83221.0,83460.0,83524.0
79,79,84047.57534992846,0.4995522045131119,0.3042991237721231,84143.42464845147,-0.30437477187011663,0.324325001313157,84185.98399589132,1.7641085819248228,11.079624504985732,84216.30135639943,-0.2906227373001669,6.189931480868378,84491.96047388595,0.48957900448746267,36.845906340793,0.960788614351878,95.0,93.0,80.0,302.0,382.0,2.0,987.0,1002.0,2.0,1.0,1.0,0.5,0.17259006505259572,0.057970914658938284,2.0,1.0,1.0,0.5,0.1316901637091775,0.057970914658938284,28.0,14.0,14.0,0.5,1.6500054874947319,0.057970914658938284,14.0,5.0,9.0,0.35714285714285715,0.5279673967618534,0.057970914658938284,75.0,43.0,32.0,0.5733333333333334,,,,0.0,84047.0,84049.0,84142.0,84144.0,84172.0,84199.0,84213.0,84222.0,84456.0,84524.0
80,80,85064.57533909987,0.2433239287908843,0.40887623094894554,85150.57533909987,-0.10795178939805587,2.5479652866549607,85185.79190854373,1.7434356907935427,11.034886171778659,85215.8653017098,-0.31901740768146253,7.075006232312226,85493.08212109699,0.485962351817209,33.66683342223394,0.9573086965754873,85.0,82.0,76.0,299.0,375.0,3.0,1017.0,1000.0,3.0,2.0,1.0,0.6666666666666666,0.07718168402549463,0.05561737461104896,4.0,3.0,1.0,0.75,0.09932203247514096,0.05565961210879469,26.0,14.0,12.0,0.5384615384615384,1.7072901126091282,0.056097819542795475,13.0,5.0,8.0,0.38461538461538464,0.6729200476155387,0.0559844323279407,87.0,44.0,43.0,0.5057471264367817,,,,0.0,85063.0,85066.0,85148.0,85152.0,85172.0,85198.0,85211.0,85224.0,85455.0,85523.0
81,81,86042.21021461881,0.09684845503298427,7.64389620259217,86083.85134537138,-0.18890392375565754,0.6986511061969377,86185.60062223027,1.7538226196923916,10.54783937442988,86216.57533909987,-0.37689315335069745,2.5479654008640567,86493.01087880273,0.47914896834897364,35.72753048481686,0.9516820190018219,43.0,36.0,135.0,311.0,446.0,7.0,978.0,1000.0,12.0,7.0,5.0,0.5833333333333334,0.0994430924357858,0.05904001519724362,2.0,1.0,1.0,0.5,0.19624661001041005,0.05904001519724362,28.0,14.0,14.0,0.5,1.7197412816794628,0.05904001519724362,2.0,1.0,1.0,0.5,0.6579093203896758,0.05904001519724362,88.0,43.0,45.0,0.48863636363636365,,,,0.0,86040.0,86047.0,86083.0,86085.0,86172.0,86198.0,86216.0,86218.0,86468.0,86529.0
82,82,86934.04770584696,0.1711918824731254,0.6935609964165331,87098.93343117397,-0.17330972596005667,0.1503190909244529,87185.57286670608,1.7537645334389786,10.955598990491437,87215.84799018913,-0.32467529649510835,5.095930729958436,87492.24659443612,0.4814166257616541,36.01210249943768,0.9589855937793612,165.0,163.0,121.0,316.0,437.0,2.0,891.0,999.0,2.0,1.0,1.0,0.5,0.19434359867372097,0.056677958400118425,2.0,1.0,1.0,0.5,0.09068801948134678,0.056677958400118425,28.0,15.0,13.0,0.5357142857142857,1.59797121802674,0.056677958400118425,10.0,3.0,7.0,0.3,0.6377985894793373,0.056677958400118425,70.0,27.0,43.0,0.38571428571428573,,,,0.0,86933.0,86935.0,87098.0,87100.0,87172.0,87199.0,87213.0,87219.0,87465.0,87535.0
83,83,89045.37477678055,0.15152714763885794,1.0872951554350998,89128.59848095535,-0.19035315139592052,0.041229017163014026,89185.77317481347,1.756453185460347,10.996093029827671,89215.69958545252,-0.3475074759524429,5.6551536931856194,89492.39350374273,0.4962210827602401,36.66439788651556,0.9586535170143543,84.0,78.0,94.0,303.0,397.0,6.0,2111.0,2003.0,6.0,1.0,5.0,0.16666666666666666,0.14940725719242912,0.058564944568001195,2.0,1.0,1.0,0.5,0.15768516034220723,0.06191646182385719,27.0,14.0,13.0,0.5185185185185185,1.7529057359616416,0.06113855765773443,10.0,4.0,6.0,0.4,0.7674067188866276,0.06223550516796588,72.0,39.0,33.0,0.5416666666666666,,,,0.0,89044.0,89050.0,89128.0,89130.0,89172.0,89199.0,89212.0,89222.0,89453.0,89525.0
84,84,90038.00679433689,0.12414498006117873,2.5479654008640567,90121.38168127464,-0.1204672617389231,1.2816389838972817,90185.71813203697,1.7283253311623883,11.246849204330148,90215.72601729959,-0.3258757345583441,5.527760378882281,90491.66650991695,0.510168899810031,36.5965161814639,0.9594828302061,83.0,81.0,100.0,311.0,411.0,2.0,993.0,999.0,2.0,1.0,1.0,0.5,0.26940405612180707,0.05905647123916065,4.0,1.0,3.0,0.25,0.15702010990220616,0.05851540474828296,27.0,14.0,13.0,0.5185185185185185,1.6772633181314291,0.05851237946065638,9.0,5.0,4.0,0.5555555555555556,0.6798789371105579,0.05885323572693076,87.0,45.0,42.0,0.5172413793103449,,,,0.0,90037.0,90039.0,90120.0,90124.0,90172.0,90199.0,90211.0,90220.0,90453.0,90531.0
85,85,91063.57533909987,0.10846361738488576,2.5479654008640567,91121.41098076812,-1.1454930218582393,0.2140812716182013,91185.58341829102,1.7592118705716093,11.037274846933395,91215.72601729959,-0.27359224935173715,6.970123364784864,91492.5626690273,0.49345327218436474,36.79497668831235,0.9566454289767939,57.0,55.0,102.0,309.0,411.0,2.0,1026.0,999.0,2.0,1.0,1.0,0.5,0.07076994911536472,0.060798928272640156,2.0,1.0,1.0,0.5,0.13398877513768725,0.06085285303199844,27.0,14.0,13.0,0.5185185185185185,1.766575293734408,0.060624356865708454,11.0,5.0,6.0,0.45454545454545453,0.6031070971022963,0.0613811851698992,80.0,42.0,38.0,0.525,,,,0.0,91063.0,91065.0,91120.0,91122.0,91173.0,91199.0,91214.0,91222.0,91475.0,91531.0
86,86,92066.5753710165,0.3533943644557853,0.33379590458503033,92113.01130728604,-0.13173716363392557,-0.13117626807123342,92185.53701560767,1.7398187294694905,11.023465154857819,92216.27398010602,-0.28831138519876665,7.289137181824654,92490.9299191466,0.4881494809307857,35.45052844090498,0.9553504681722679,47.0,44.0,109.0,306.0,415.0,3.0,1003.0,1001.0,3.0,2.0,1.0,0.6666666666666666,0.14997588951137492,0.05689892002278122,2.0,1.0,1.0,0.5,0.09508060213909308,0.05758812415590259,27.0,14.0,13.0,0.5185185185185185,1.6590941235659487,0.057898157363949425,9.0,4.0,5.0,0.4444444444444444,0.6505334459832572,0.057898157363949425,87.0,49.0,38.0,0.5632183908045977,,,,0.0,92065.0,92068.0,92112.0,92114.0,92172.0,92199.0,92212.0,92221.0,92460.0,92527.0
87,87,93050.08051588184,0.17775588543584653,0.5067194762214607,93121.82162134958,-0.17105310938949625,0.7008259568225922,93185.64536215861,1.7525882225218739,10.855199320214897,93217.87669549929,-0.29272923500692494,7.099634272119187,93492.60645325719,0.4830949519338882,34.593937050493345,0.9577445924131134,72.0,70.0,104.0,300.0,404.0,2.0,983.0,1000.0,2.0,1.0,1.0,0.5,0.15037484960388658,0.05426617343961761,2.0,1.0,1.0,0.5,0.22861199783094943,0.0547941693843808,26.0,13.0,13.0,0.5,1.786397619560062,0.05421387309025904,16.0,8.0,8.0,0.5,0.4969604516662274,0.05371053210008602,79.0,42.0,37.0,0.5316455696202531,,,,0.0,93049.0,93051.0,93121.0,93123.0,93173.0,93199.0,93212.0,93225.0,93460.0,93525.0
88,88,94047.17271010866,0.10576206689620421,2.5479654008640567,94138.57704847911,-0.6005950330416009,0.25565446875260905,94185.76082502615,1.7516827691292671,11.088313716005208,94215.23245243642,-0.303765587447664,6.478743438091332,94491.54475515395,0.490097121462251,36.49094958740251,0.9580237158810384,93.0,90.0,83.0,293.0,376.0,3.0,997.0,998.0,3.0,2.0,1.0,0.6666666666666666,0.1567310407554387,0.05535867741703565,2.0,1.0,1.0,0.5,0.15359398636816923,0.05648048656845816,29.0,15.0,14.0,0.5172413793103449,1.6081595214234436,0.05642550705997338,10.0,3.0,7.0,0.3,0.6923797157707225,0.05681455141519597,83.0,42.0,41.0,0.5060240963855421,,,,0.0,94045.0,94048.0,94138.0,94140.0,94172.0,94199.0,94212.0,94221.0,94461.0,94514.0
89,89,95044.42465705125,0.15940614124396407,2.5479654008640567,95152.57533909987,-0.13679820538611587,2.54796526431573,95185.47304709676,1.7333971779271982,11.165234030926195,95216.41630113393,-0.32102156697676265,7.028281761247526,95491.78112528773,0.48374394150019034,35.392889936423195,0.9563759610497695,109.0,105.0,71.0,295.0,366.0,4.0,997.0,1000.0,4.0,1.0,3.0,0.25,0.14907141183363007,0.06141894637886382,2.0,1.0,1.0,0.5,0.11545392753898762,0.06297036614598643,28.0,14.0,14.0,0.5,1.810978696725678,0.06314224021751007,14.0,5.0,9.0,0.35714285714285715,0.6255420290290896,0.062761685371232,85.0,43.0,42.0,0.5058823529411764,,,,0.0,95043.0,95047.0,95152.0,95154.0,95171.0,95198.0,95211.0,95223.0,95458.0,95518.0
90,90,97054.15067820877,0.14201998990053644,5.0959308017281115,97128.97190398892,-0.12672992675431008,0.6006370292394487,97185.89978233208,1.7660306840806719,11.056185893645246,97215.66698236426,-0.28705346659127035,6.076862797201859,97491.17546024402,0.5024396430753969,37.31335137765196,0.9594500989880352,75.0,68.0,91.0,309.0,400.0,7.0,2011.0,2004.0,7.0,1.0,6.0,0.14285714285714285,0.04965500457512732,0.05771384449277644,2.0,1.0,1.0,0.5,0.10818590474029151,0.05771384449277644,27.0,14.0,13.0,0.5185185185185185,1.7793752940086902,0.05771384449277644,7.0,4.0,3.0,0.5714285714285714,0.6561032211852087,0.05771384449277644,74.0,37.0,37.0,0.5,,,,0.0,97053.0,97060.0,97128.0,97130.0,97172.0,97199.0,97212.0,97219.0,97454.0,97528.0
91,91,98051.42466090013,0.18029122068035197,2.5479654008640553,98133.42466090013,-0.1814017915538636,0.5069273397809991,98185.6580533709,1.780428154718786,11.055214793200593,98214.7069407659,-0.2793043279993334,5.810699926306403,98493.12963800253,0.5156224425052963,38.71302960400831,0.9586665344983655,82.0,79.0,89.0,306.0,395.0,3.0,996.0,996.0,3.0,1.0,2.0,0.3333333333333333,0.14558455706326684,0.06075562606821259,3.0,1.0,2.0,0.3333333333333333,0.14116291369901493,0.06420748487350911,27.0,14.0,13.0,0.5185185185185185,1.8166642060939608,0.06577009697650903,11.0,5.0,6.0,0.45454545454545453,0.6582903853615921,0.06480958043549755,88.0,43.0,45.0,0.48863636363636365,,,,0.0,98050.0,98053.0,98132.0,98135.0,98172.0,98199.0,98210.0,98221.0,98458.0,98527.0
92,92,100059.88780423124,0.1602749135206018,0.7624817799993716,100105.32663678528,-0.41611529680744436,0.2437716248112942,100185.89061980996,1.7280299509857957,11.096080238310632,100216.72601729959,-0.3062755157724742,7.634139767557541,100494.50678199713,0.4841947818669799,35.643610706372336,0.9547955151681564,45.0,43.0,117.0,302.0,419.0,2.0,2009.0,2002.0,2.0,1.0,1.0,0.5,0.1800784277528433,0.05825577917787283,2.0,1.0,1.0,0.5,0.1422178846942519,0.05825577917787283,28.0,14.0,14.0,0.5,1.744248872372486,0.05825577917787283,11.0,7.0,4.0,0.6363636363636364,0.5400205964929421,0.05825577917787283,89.0,46.0,43.0,0.5168539325842697,,,,0.0,100059.0,100061.0,100104.0,100106.0,100172.0,100200.0,100211.0,100221.0,100455.0,100523.0
93,93,101058.57533909987,0.12340406372040755,2.5479649278138625,101145.42466090013,-0.10960586175069012,2.547964453801455,101185.56752140853,1.7540069999724175,10.969115519513643,101215.92803458365,-0.32050521418250016,6.7759536698371425,101491.85143749292,0.4823343611224021,35.55716677993824,0.9569665804736249,90.0,84.0,80.0,302.0,382.0,6.0,999.0,998.0,6.0,5.0,1.0,0.8333333333333334,0.08551289955225777,0.058263022166919136,5.0,1.0,4.0,0.2,0.13620434531084297,0.057203437866080106,27.0,14.0,13.0,0.5185185185185185,1.6664479812826558,0.05917603785194953,13.0,5.0,8.0,0.38461538461538464,0.5996162309890025,0.05865299109760704,69.0,34.0,35.0,0.4927536231884058,,,,0.0,101054.0,101060.0,101144.0,101149.0,101172.0,101199.0,101211.0,101224.0,101462.0,101526.0
94,94,102047.42466089959,0.15679262789777815,2.547887523614132,102092.42453481819,-0.25888382805263327,0.3609036261262073,102185.68136053914,1.7457000554137074,11.104828500107862,102215.36988550313,-0.3143904487394735,6.578879773929225,102498.47940829814,0.5048150756942142,33.1235501954172,0.95296799572677,46.0,43.0,130.0,296.0,426.0,3.0,988.0,1002.0,3.0,2.0,1.0,0.6666666666666666,0.23232408462915582,0.07449875456777753,3.0,1.0,2.0,0.3333333333333333,0.22229232787565087,0.07413690683403677,28.0,14.0,14.0,0.5,1.77925230466054,0.06769994989289642,9.0,3.0,6.0,0.3333333333333333,0.6671763083251909,0.06759459822921161,81.0,44.0,37.0,0.5432098765432098,,,,0.0,102045.0,102048.0,102091.0,102094.0,102172.0,102200.0,102212.0,102221.0,102460.0,102517.0
95,95,105051.88757672466,0.12462538784883707,2.5479653531167017,105155.2872353082,-0.2003184226040905,0.6797496283636946,105185.50245549704,1.7370472819968914,11.243816347354004,105216.15067819973,-0.3307682972728475,5.095930801728113,105492.01572931705,0.49271350978656264,36.620914203767214,0.9604066170485674,106.0,101.0,65.0,303.0,368.0,5.0,3005.0,2997.0,5.0,4.0,1.0,0.8,0.22632916590847588,0.057735908590699145,2.0,1.0,1.0,0.5,0.22556105019225633,0.057735908590699145,27.0,14.0,13.0,0.5185185185185185,1.717717122011385,0.057735908590699145,6.0,3.0,3.0,0.5,0.6480478645593063,0.057735908590699145,65.0,35.0,30.0,0.5384615384615384,,,,0.0,105048.0,105053.0,105154.0,105156.0,105172.0,105199.0,105213.0,105219.0,105457.0,105522.0
96,96,106051.73813379814,0.1587143757870075,2.5479654008640567,106151.84932180027,-0.10361753201455436,5.095868365685942,106185.82654013918,1.7131222092464513,11.3565844527632,106215.2081870696,-0.29813651476927006,7.120141435967547,106487.34253980315,0.4719461969661564,36.039815561403195,0.9504723469690913,100.0,96.0,74.0,306.0,380.0,4.0,1000.0,1003.0,4.0,3.0,1.0,0.75,0.18340351551955958,0.061961103014023425,5.0,4.0,1.0,0.8,0.1277729810210808,0.06151477540135275,28.0,14.0,14.0,0.5,1.7280962941682667,0.06287309296213568,12.0,4.0,8.0,0.3333333333333333,0.622508862451645,0.0647871229189242,82.0,39.0,43.0,0.47560975609756095,,,,0.0,106049.0,106053.0,106149.0,106153.0,106172.0,106200.0,106211.0,106223.0,106456.0,106529.0
97,97,107054.84932180027,0.14545624135577934,5.09593080101312,107102.75624963669,-733.5245775824817,-0.058540070244059605,107185.55239242285,1.74948088412192,11.201461461005762,107216.06561608943,-0.3228029469082694,5.81149267556236,107492.00737339117,0.5044138135317238,36.6395048222979,0.9630404691088118,50.0,46.0,121.0,305.0,426.0,4.0,1002.0,1000.0,10.0,3.0,7.0,0.3,0.11600380298238636,0.05648281277717592,2.0,1.0,1.0,0.5,0.08545392191687845,0.0568405853525768,27.0,14.0,13.0,0.5185185185185185,1.673635784255155,0.056605043320890364,12.0,5.0,7.0,0.4166666666666667,0.5749250817122538,0.057044636121502255,83.0,43.0,40.0,0.5180722891566265,,,,0.0,107052.0,107056.0,107102.0,107105.0,107172.0,107199.0,107212.0,107223.0,107456.0,107528.0
98,98,108047.42436926748,0.10736043459584232,2.547832031104101,108105.79268066982,-0.7464157119603609,0.11852225937533022,108185.51350462326,1.7376049545133105,11.136382957129193,108216.06070858701,-0.3155261399790289,6.17777530321957,108492.80969276649,0.4946210877087358,36.38130063385286,0.9583178979227535,59.0,57.0,116.0,306.0,422.0,2.0,993.0,999.0,2.0,1.0,1.0,0.5,0.12188433162419055,0.0535883301590309,2.0,1.0,1.0,0.5,0.10218460613373331,0.057792703305225325,26.0,14.0,12.0,0.5384615384615384,1.7096684599102534,0.05878978084620278,10.0,5.0,5.0,0.5,0.5971870420098484,0.05880134690983086,78.0,37.0,41.0,0.47435897435897434,,,,0.0,108046.0,108048.0,108105.0,108107.0,108172.0,108198.0,108212.0,108221.0,108459.0,108527.0
99,99,109051.42465974977,0.11272166393603435,2.547965377097079,109137.08816939221,-0.14933549029327917,0.5168096313174914,109185.6700568641,1.748454409247163,11.110297826910283,109215.80976603553,-0.32584397222343364,5.095930801728113,109490.65746019685,0.49192865023785354,37.44716412126359,0.961514295249882,87.0,84.0,85.0,301.0,386.0,3.0,1004.0,1002.0,3.0,2.0,1.0,0.6666666666666666,0.14341129532360206,0.05598156611366553,2.0,1.0,1.0,0.5,0.16192712295881653,0.05436034058493492,27.0,14.0,13.0,0.5185185185185185,1.7028654759193442,0.05404240085410945,7.0,2.0,5.0,0.2857142857142857,0.6371378868923958,0.05474487204359807,85.0,39.0,46.0,0.4588235294117647,,,,0.0,109049.0,109052.0,109136.0,109138.0,109172.0,109199.0,109214.0,109221.0,109455.0,109522.0
100,100,110029.17812834663,0.28141527812221767,0.1858841791586074,110124.24805738765,-0.16349018523803416,0.6202147579965752,110185.4259546711,1.7806728299749508,10.627134645330377,110218.57533928815,-0.2941473321122184,2.5479597799070857,110485.34252790992,0.4878863920374595,37.29675120691765,0.952120239105826,95.0,93.0,97.0,310.0,407.0,2.0,978.0,997.0,2.0,1.0,1.0,0.5,0.15829836911762946,0.0571675673114476,3.0,1.0,2.0,0.3333333333333333,0.13528840466905712,0.05723637809057425,28.0,13.0,15.0,0.4642857142857143,1.7862685482434961,0.056807538021478,3.0,2.0,1.0,0.6666666666666666,0.5191427340304783,0.05784729201239092,76.0,31.0,45.0,0.40789473684210525,,,,0.0,110028.0,110030.0,110123.0,110126.0,110172.0,110199.0,110217.0,110220.0,110454.0,110530.0
101,101,111044.036272255,0.11385937503802772,7.64389620259217,111113.80798514704,-0.16120427428795817,0.5123446309296823,111185.6711525263,1.7406391667228136,11.014520037650652,111215.72601729959,-0.34041872927967975,6.243469726010428,111492.7209801337,0.49528282867770385,35.361041082372644,0.9613024477375385,73.0,67.0,107.0,305.0,412.0,6.0,1014.0,1002.0,7.0,5.0,2.0,0.7142857142857143,0.18916008900857018,0.05752220796594693,2.0,1.0,1.0,0.5,0.1798570075578625,0.05752220796594693,27.0,14.0,13.0,0.5185185185185185,1.7602778735882567,0.05752220796594693,10.0,6.0,4.0,0.6,0.6467180607450109,0.05752220796594693,73.0,41.0,32.0,0.5616438356164384,,,,0.0,111040.0,111046.0,111113.0,111115.0,111172.0,111199.0,111210.0,111220.0,111460.0,111525.0
102,102,112040.28418984236,0.18421054695270778,0.89076133820536,112122.57533909987,-0.09120141490439841,2.5479375399755733,112185.65507679606,1.748762978374405,10.896842180436133,112217.72601729959,-0.29673386094694626,7.272891543521501,112490.91787890301,0.47525146653668565,35.332285336382554,0.9525981521809587,83.0,80.0,100.0,299.0,399.0,3.0,997.0,1000.0,3.0,1.0,2.0,0.3333333333333333,0.2232434719659512,0.05953479700897193,2.0,1.0,1.0,0.5,0.13316318780191067,0.05953479700897193,27.0,14.0,13.0,0.5185185185185185,1.698626078763105,0.05953479700897193,15.0,7.0,8.0,0.4666666666666667,0.4284287043001631,0.05953479700897193,91.0,48.0,43.0,0.5274725274725275,,,,0.0,112039.0,112042.0,112122.0,112124.0,112172.0,112199.0,112212.0,112222.0,112461.0,112521.0
103,103,113052.57533918034,0.5525241618365901,0.26421427103764367,113118.4246608997,-0.23583189105285388,0.3936845643966687,113185.71428324736,1.747488653457423,10.844851183765108,113215.36822196054,-0.3138010286427186,5.095930801726988,113491.79471144167,0.4847055614319819,36.67266958481273,0.9565224331246691,65.0,63.0,101.0,308.0,409.0,2.0,1013.0,1001.0,2.0,1.0,1.0,0.5,0.11683410899623684,0.06235882342795841,3.0,1.0,2.0,0.3333333333333333,0.12897170193636495,0.060620897863363686,28.0,14.0,14.0,0.5,1.6344812063117908,0.059616911103849875,8.0,1.0,7.0,0.125,0.7143693708899125,0.059974887129180574,74.0,40.0,34.0,0.5405405405405406,,,,0.0,113052.0,113054.0,113117.0,113120.0,113172.0,113199.0,113214.0,113218.0,113452.0,113526.0
104,104,114039.42466090013,0.11558960019908864,2.5479654008640567,114143.57533909987,-0.16112082329578006,1.1881448507981014,114185.57429987853,1.7425448712031075,10.9909794299519,114215.87669549929,-0.28676671331028836,6.431537839274866,114492.49267669291,0.5087629987387137,37.05770549944726,0.9583786276176568,104.0,102.0,81.0,308.0,389.0,2.0,986.0,1000.0,2.0,1.0,1.0,0.5,0.2058191350108028,0.05584173466305922,3.0,2.0,1.0,0.6666666666666666,0.13365497084796849,0.06274721193287436,27.0,14.0,13.0,0.5185185185185185,1.669514884463485,0.06228005249666308,14.0,6.0,8.0,0.42857142857142855,0.5551595180279872,0.06209989236922694,67.0,28.0,39.0,0.417910447761194,,,,0.0,114038.0,114040.0,114142.0,114145.0,114172.0,114199.0,114211.0,114223.0,114464.0,114531.0
105,105,115056.15067819975,0.14555637791226986,5.0959308015743,115128.90280492207,-0.6662456296751069,-0.053769783026590745,115185.59679291767,1.7475691273759835,11.181647768437104,115215.25085444124,-0.31112226274398386,6.448973900818661,115491.30180265769,0.5023248216237517,36.87031791387371,0.9606108821831661,73.0,66.0,94.0,299.0,393.0,7.0,1018.0,998.0,7.0,1.0,6.0,0.14285714285714285,0.14904011409913814,0.05834349946471035,2.0,1.0,1.0,0.5,0.16192064682782656,0.05834349946471035,30.0,15.0,15.0,0.5,1.5671654907298622,0.05834349946471035,12.0,5.0,7.0,0.4166666666666667,0.7263737037310507,0.05834349946471035,78.0,35.0,43.0,0.44871794871794873,,,,0.0,115055.0,115062.0,115128.0,115130.0,115172.0,115199.0,115210.0,115222.0,115459.0,115521.0
106,106,116049.84932094814,0.12124664100681679,5.095930801685496,116091.90515868642,-0.3700021821579677,-0.07224560916064954,116185.705599193,1.751935002680751,11.086776699470082,116216.03227036758,-0.270966714092234,5.815973078154104,116492.61399106424,0.5064122551867616,37.02810335703326,0.959775492577826,44.0,40.0,129.0,309.0,438.0,4.0,992.0,1001.0,4.0,3.0,1.0,0.75,0.18348360225170834,0.06310280442285003,2.0,1.0,1.0,0.5,0.2239237149579269,0.06287733327715164,27.0,14.0,13.0,0.5185185185185185,1.806326559378555,0.06156307383999852,12.0,4.0,8.0,0.3333333333333333,0.5657433111316139,0.0622199517643404,83.0,43.0,40.0,0.5180722891566265,,,,0.0,116047.0,116051.0,116091.0,116093.0,116172.0,116199.0,116212.0,116220.0,116470.0,116529.0
107,107,117042.27398270027,0.11213221465038475,7.643896202082223,117129.19845107487,-0.28786140233623697,0.1501546553509419,117185.55934308638,1.7481866416509686,10.954103269082571,117216.06663284739,-0.3057003818624338,6.5219099848538695,117491.67272407476,0.5046447860391973,34.21797092181053,0.9604174550961421,90.0,83.0,96.0,296.0,392.0,7.0,992.0,1000.0,7.0,4.0,3.0,0.5714285714285714,0.19150874365033527,0.05907391296595754,2.0,1.0,1.0,0.5,0.16114303059687302,0.06018342078552459,27.0,14.0,13.0,0.5185185185185185,1.7839973557959212,0.05884892665871944,13.0,5.0,8.0,0.38461538461538464,0.6270076857881082,0.059023457166803295,75.0,42.0,33.0,0.56,,,,0.0,117038.0,117045.0,117128.0,117130.0,117172.0,117199.0,117212.0,117224.0,117462.0,117520.0
108,108,118051.57533909987,0.12082343033253282,2.5479654007793444,118149.42150280856,-0.5089852001138393,0.2720156030541252,118185.45221534155,1.7761007041821197,10.589615818682965,118220.57533909987,-0.3172164235236097,2.5479654008640567,118500.50678199713,0.48441333786313,35.695387569035674,0.9473452898324601,98.0,95.0,74.0,307.0,381.0,3.0,1011.0,1001.0,3.0,2.0,1.0,0.6666666666666666,0.18942044250527104,0.06088966785991617,2.0,1.0,1.0,0.5,0.01577976606035649,0.06188640350715326,27.0,13.0,14.0,0.48148148148148145,1.764903861301564,0.06205927377195488,7.0,6.0,1.0,0.8571428571428571,0.47350073293351536,0.06253468916504606,81.0,51.0,30.0,0.6296296296296297,,,,0.0,118050.0,118053.0,118148.0,118150.0,118173.0,118199.0,118215.0,118222.0,118453.0,118529.0
109,109,119051.99114819508,0.14005450188477286,0.5383025426722418,119148.75471772303,-0.1681639718976381,0.44601672536669096,119185.36361592555,1.7593647141260664,10.886146973282097,119214.42466090013,-0.38844695722983147,2.5479654008640567,119492.19560700042,0.4919378162413166,38.826435306704184,0.959065864777461,97.0,95.0,73.0,305.0,378.0,2.0,1000.0,999.0,2.0,1.0,1.0,0.5,0.1816149549289313,0.0553644654057766,2.0,1.0,1.0,0.5,0.03674239467473192,0.055593028105173296,28.0,14.0,14.0,0.5,1.7368587969861276,0.05561188428117925,8.0,1.0,7.0,0.125,0.6358583093630286,0.05562138800616225,87.0,41.0,46.0,0.47126436781609193,,,,0.0,119051.0,119053.0,119148.0,119150.0,119173.0,119199.0,119213.0,119221.0,119462.0,119526.0
110,110,120046.42466090013,0.15175913223398996,2.5479654008640567,120129.57553094496,-8.678885529006736,0.14792944798804877,120185.5817021894,1.780057337726891,10.822383061099256,120215.65557918407,-0.3499756034837679,2.5479654008640567,120489.7672007033,0.5076793596263862,38.279401915522115,0.956473445358861,84.0,81.0,88.0,315.0,403.0,3.0,994.0,1000.0,3.0,1.0,2.0,0.3333333333333333,0.23504496899923782,0.05493858595599829,2.0,1.0,1.0,0.5,0.17213728687776214,0.0621878112621078,27.0,14.0,13.0,0.5185185185185185,1.7326399464381144,0.07730943443697508,3.0,2.0,1.0,0.6666666666666666,0.6429686094728326,0.06853943549456752,85.0,39.0,46.0,0.4588235294117647,,,,0.0,120045.0,120048.0,120129.0,120131.0,120172.0,120199.0,120214.0,120217.0,120457.0,120532.0
111,111,120794.12929168566,0.1722099618826535,0.6503201538736133,121149.42466089985,-0.09711874317628938,2.5479653999553875,121185.43802534608,1.7634021101246375,10.885159198740464,121216.56891990648,-0.2953990588698831,5.776682539359639,121492.25458253744,0.49009144195941806,34.9465861977173,0.9541369323781718,355.0,353.0,75.0,302.0,377.0,2.0,748.0,1000.0,2.0,1.0,1.0,0.5,0.20050159794218675,0.05808255485297076,2.0,1.0,1.0,0.5,0.033694249912258126,0.05959124122209013,26.0,12.0,14.0,0.46153846153846156,1.799772074174606,0.06332475079698811,12.0,6.0,6.0,0.5,0.5670357895690017,0.06809005538473165,80.0,37.0,43.0,0.4625,,,,0.0,120793.0,120795.0,121148.0,121150.0,121173.0,121199.0,121211.0,121223.0,121467.0,121525.0
112,112,122055.42466090013,0.13224837190171454,2.5479654008640567,122145.2764750838,-0.16070361152121432,0.6615953488247194,122185.76724842604,1.7702869457557124,11.235792246498068,122215.53936437058,-0.27654950652876503,6.544153857655861,122498.20542559771,0.4850917803071844,37.72087661879146,0.9556807942081245,91.0,88.0,77.0,300.0,377.0,3.0,1261.0,998.0,3.0,2.0,1.0,0.6666666666666666,0.1466770268081274,0.05685926137522993,3.0,1.0,2.0,0.3333333333333333,0.08425886969328872,0.05685926137522993,27.0,14.0,13.0,0.5185185185185185,1.6955704686419342,0.05685926137522993,9.0,4.0,5.0,0.4444444444444444,0.6434529924435681,0.05685926137522993,87.0,49.0,38.0,0.5632183908045977,,,,0.0,122053.0,122056.0,122144.0,122148.0,122172.0,122199.0,122212.0,122221.0,122461.0,122521.0
113,113,123044.42466089717,0.1357252501713437,2.5474427923268452,123122.41823200628,-0.3523056147929888,0.3455499211978785,123185.52558881392,1.7446765152924812,11.186579524438612,123215.92714281983,-0.30135147843141596,5.7145954460917725,123492.63071209114,0.5007579201234696,37.09725875038016,0.9625136461142827,79.0,76.0,100.0,306.0,406.0,3.0,989.0,1001.0,3.0,2.0,1.0,0.6666666666666666,0.1292835174648594,0.05968112844322228,3.0,1.0,2.0,0.3333333333333333,0.2338480052488494,0.058414314052376265,29.0,15.0,14.0,0.5172413793103449,1.6549751634212595,0.05923609980509253,9.0,4.0,5.0,0.4444444444444444,0.6804350544305744,0.06011770872350811,69.0,35.0,34.0,0.5072463768115942,,,,0.0,123042.0,123045.0,123121.0,123124.0,123173.0,123198.0,123212.0,123221.0,123458.0,123527.0
114,114,124042.42466090013,0.1374823498028287,2.547958352083723,124144.95504543948,-0.1648785806962337,0.1094595438293156,124185.67556482126,1.7681850940525214,10.995065088074401,124216.30135639943,-0.3194246527201295,5.479602910262442,124491.36273342573,0.48363276813224815,36.78336263997832,0.9597341644877112,103.0,101.0,78.0,308.0,386.0,2.0,998.0,1000.0,2.0,1.0,1.0,0.5,0.2759809034745082,0.05773815232391594,2.0,1.0,1.0,0.5,0.06101738910087566,0.05798554385878533,27.0,14.0,13.0,0.5185185185185185,1.690082004398266,0.05768665365057021,12.0,6.0,6.0,0.5,0.5756125891189318,0.057363332031169105,74.0,34.0,40.0,0.4594594594594595,,,,0.0,124041.0,124043.0,124144.0,124146.0,124172.0,124199.0,124213.0,124222.0,124457.0,124530.0
115,115,125048.60700639107,0.12867184846205465,5.095930801728091,125154.7893384311,-0.20887965045188353,0.428259887131847,125185.64185639625,1.7601698245882185,11.213751437690021,125215.87682577482,-0.30197742476303435,6.08219629934532,125481.79457440229,0.47581758529806273,38.08378912870922,0.9534269406896891,108.0,104.0,69.0,301.0,370.0,4.0,1006.0,1001.0,6.0,3.0,3.0,0.5,0.12127010676203996,0.056927213636855684,2.0,1.0,1.0,0.5,0.167140463705941,0.05696188039570772,26.0,14.0,12.0,0.5384615384615384,1.806082822030257,0.055908749953480344,11.0,4.0,7.0,0.36363636363636365,0.6218373240231845,0.05689856811675407,78.0,23.0,55.0,0.2948717948717949,,,,0.0,125046.0,125050.0,125154.0,125156.0,125172.0,125198.0,125212.0,125223.0,125459.0,125524.0
116,116,126055.5753422724,0.14699334100160194,2.5479647808693433,126155.93630770805,-0.393553454014952,-0.05579150601107889,126185.57864794956,1.7592232826573833,10.983777965323261,126216.30135639943,-0.2824159825643055,6.539131109686289,126487.64389620257,0.4973977411065092,35.96702247978917,0.956104819560688,101.0,98.0,67.0,298.0,365.0,3.0,1008.0,998.0,3.0,2.0,1.0,0.6666666666666666,0.18014151488227542,0.05834483234642346,2.0,1.0,1.0,0.5,0.19857789517423402,0.07055915871802627,27.0,15.0,12.0,0.5555555555555556,1.7296399773283826,0.07079954821740253,11.0,5.0,6.0,0.45454545454545453,0.5596046683618527,0.0662415129809567,83.0,36.0,47.0,0.43373493975903615,,,,0.0,126054.0,126057.0,126155.0,126157.0,126171.0,126198.0,126211.0,126222.0,126462.0,126520.0
117,117,127046.4246609001,0.1459855039916226,2.5479654008640567,127106.61324190657,-0.5069309100747811,0.2287899734381646,127185.54975967316,1.7510153733195895,11.13690801244784,127215.79422662222,-0.2954175121913915,6.264630516588931,127494.93144289727,0.47480094953800894,36.16629883257954,0.9549059314249456,63.0,59.0,118.0,298.0,416.0,4.0,990.0,1001.0,4.0,3.0,1.0,0.75,0.16637071159513137,0.05283199287322802,2.0,1.0,1.0,0.5,0.1450158202909802,0.05594410511854381,28.0,15.0,13.0,0.5357142857142857,1.6881575779477824,0.06629325125479198,14.0,6.0,8.0,0.42857142857142855,0.5425862951957608,0.06634342449130143,81.0,44.0,37.0,0.5432098765432098,,,,0.0,127043.0,127047.0,127106.0,127109.0,127171.0,127199.0,127210.0,127224.0,127463.0,127522.0
118,118,128044.42466089873,0.12901878376433937,2.5460926713916403,128147.57713223982,-0.3159270072431879,0.3547725897858785,128185.6407635052,1.7630123840826075,10.793915024837283,128214.42466090013,-0.39824156200172806,2.5479654004607974,128492.82074861256,0.4924561934035814,35.101703116760376,0.9567500326638123,102.0,99.0,78.0,306.0,384.0,3.0,998.0,999.0,3.0,1.0,2.0,0.3333333333333333,0.20782728724738392,0.05529731406225422,4.0,3.0,1.0,0.75,0.04647690866323298,0.05489685600018014,28.0,14.0,14.0,0.5,1.7272552847997367,0.05492704479772692,10.0,1.0,9.0,0.1,0.8158098473104208,0.05489644342988757,68.0,29.0,39.0,0.4264705882352941,,,,0.0,128043.0,128046.0,128145.0,128149.0,128172.0,128200.0,128213.0,128223.0,128464.0,128529.0
119,119,129060.02576893108,0.13419551636790486,2.1464756283382,129086.68918378236,-0.2346398939796845,0.0022516188350631405,129185.46831291472,1.7611363065607826,10.981975456743333,129216.57539616713,-0.2684475889266191,6.177031896834196,129492.19139420752,0.48988602723609853,37.48948115699033,0.9583613067790876,28.0,24.0,137.0,302.0,439.0,4.0,1016.0,1003.0,4.0,2.0,2.0,0.5,0.14382762759323495,0.05608313716247453,2.0,1.0,1.0,0.5,0.199306634512228,0.05601505998082895,26.0,12.0,14.0,0.46153846153846156,1.7828612719032002,0.056141119749264834,13.0,6.0,7.0,0.46153846153846156,0.5396852703843806,0.05597842679268481,76.0,39.0,37.0,0.5131578947368421,,,,0.0,129058.0,129062.0,129086.0,129089.0,129173.0,129199.0,129212.0,129223.0,129453.0,129525.0
120,120,130055.57533909987,0.18811297366621774,0.9063381953424582,130152.83596489154,-0.15437741270771324,2.5479654008640567,130185.8995516011,1.7242964536724128,11.460402664660924,130215.70271521974,-0.3140519719969718,7.377098858230891,130492.13435459223,0.48938408650582166,34.77996799204094,0.9582686307783584,98.0,95.0,72.0,301.0,373.0,3.0,996.0,998.0,3.0,2.0,1.0,0.6666666666666666,0.2019512706868359,0.05950825046930553,2.0,1.0,1.0,0.5,0.08109550268025816,0.05506379679155515,26.0,13.0,13.0,0.5,1.7761408422050637,0.07929720438743935,18.0,6.0,12.0,0.3333333333333333,0.5687062698393448,0.060672739933706685,91.0,45.0,46.0,0.4945054945054945,,,,0.0,130054.0,130057.0,130152.0,130154.0,130173.0,130199.0,130211.0,130224.0,130462.0,130525.0
121,121,131051.42466089228,0.12346583943024017,2.5479654008640567,131128.68479434616,-0.3449356794980739,0.24138661943285866,131185.57471470715,1.7554263721946064,11.28842928420985,131215.5528866246,-0.279804115516274,6.399635018724497,131484.64389620256,0.4836912622680885,37.696996131152076,0.9558912777105586,79.0,76.0,94.0,303.0,397.0,3.0,995.0,1002.0,3.0,2.0,1.0,0.6666666666666666,0.15477537914201234,0.061281666352248555,2.0,1.0,1.0,0.5,0.14391606629439313,0.046649493112353946,30.0,16.0,14.0,0.5333333333333333,1.581482699200276,0.08381528876962495,9.0,3.0,6.0,0.3333333333333333,0.6031360681048822,0.060658209008078064,85.0,32.0,53.0,0.3764705882352941,,,,0.0,131049.0,131052.0,131128.0,131130.0,131172.0,131199.0,131213.0,131222.0,131459.0,131525.0
122,122,132038.42448867133,0.3663161034836778,0.36103810038264406,132148.27398268337,-0.08860317675928678,7.642911341159806,132185.76307514805,1.7526946462381772,11.268668237918813,132215.24912686436,-0.3330100304135808,6.514979292874746,132492.85924949497,0.49792621070933313,35.37078336729153,0.9575030986060032,107.0,104.0,79.0,299.0,378.0,3.0,987.0,1000.0,3.0,1.0,2.0,0.3333333333333333,0.2009151833765646,0.058584924369773514,6.0,4.0,2.0,0.6666666666666666,0.03786052506527557,0.05737373022185274,28.0,15.0,13.0,0.5357142857142857,1.68820442531572,0.05764487912132563,12.0,4.0,8.0,0.3333333333333333,0.7038471571615625,0.05795467158736906,60.0,31.0,29.0,0.5166666666666667,,,,0.0,132037.0,132040.0,132144.0,132150.0,132171.0,132199.0,132211.0,132223.0,132462.0,132522.0
123,123,133040.8015851948,0.21654072962330834,0.5586472727746176,133129.89176147716,-0.17105279480141966,0.6734494113956837,133185.65464556767,1.7300956971821293,11.133534247898998,133216.08932230825,-0.3305675356546441,5.454943726968247,133491.21418435863,0.4913417058516105,36.26818712734687,0.9552561575766153,89.0,87.0,92.0,300.0,392.0,2.0,1003.0,998.0,2.0,1.0,1.0,0.5,0.30230140659355187,0.0657119051463013,2.0,1.0,1.0,0.5,0.20456593421626484,0.06138235786340192,27.0,14.0,13.0,0.5185185185185185,1.751576585622964,0.05911020322136339,8.0,2.0,6.0,0.25,0.6580997432459184,0.057052464461294146,72.0,34.0,38.0,0.4722222222222222,,,,0.0,133040.0,133042.0,133129.0,133131.0,133172.0,133198.0,133214.0,133221.0,133457.0,133521.0
124,124,134058.5753391006,0.22449937202129092,0.7903021139702986,134142.70958814718,-0.2036385949955701,0.6406000701935217,134185.47128163325,1.789436118181072,10.692143438397066,134220.15067819975,-0.2876453491632603,5.095918674922305,134491.96773177924,0.49757607364845197,36.58748033773215,0.9588518811767114,84.0,81.0,82.0,299.0,381.0,3.0,1018.0,1001.0,3.0,2.0,1.0,0.6666666666666666,0.09284251025027543,0.056850422306859036,3.0,2.0,1.0,0.6666666666666666,0.1732984953894196,0.05648582392648048,28.0,13.0,15.0,0.4642857142857143,1.7970283382774122,0.056604360117544904,11.0,8.0,3.0,0.7272727272727273,0.45040492504350815,0.056055243654833484,77.0,37.0,40.0,0.4805194805194805,,,,0.0,134057.0,134060.0,134141.0,134144.0,134172.0,134199.0,134212.0,134223.0,134456.0,134522.0
125,125,135050.4246609001,0.154391118312742,2.5479654008496047,135107.90896964027,-0.3482918196830331,0.07271418483258538,135185.61958990814,1.7757625418033338,10.924720698029468,135216.07186615144,-0.2933143043647803,6.614881540755563,135492.11659387592,0.5106922838049492,35.915814424970335,0.9573722532242953,58.0,54.0,116.0,310.0,426.0,4.0,991.0,998.0,4.0,1.0,3.0,0.25,0.12454941003118025,0.06042831152705647,2.0,1.0,1.0,0.5,0.17958698550675462,0.06042831152705647,28.0,15.0,13.0,0.5357142857142857,1.6791193039871017,0.06042831152705647,11.0,4.0,7.0,0.36363636363636365,0.5558712717443046,0.06042831152705647,90.0,44.0,46.0,0.4888888888888889,,,,0.0,135049.0,135053.0,135107.0,135109.0,135172.0,135199.0,135213.0,135223.0,135469.0,135533.0
126,126,136048.40424873566,0.5579725773940128,0.29293759584014345,136148.4246609001,-0.1279281996000553,2.5479654004354826,136185.43975583592,1.7514692680598554,10.825199975460846,136216.4246609001,-0.3940477074863934,2.5479654008640567,136496.08212109702,0.48269460012461857,34.99173681345569,0.9518328888666366,100.0,98.0,75.0,304.0,379.0,2.0,998.0,1001.0,2.0,1.0,1.0,0.5,0.2137710129756582,0.06371102538111839,2.0,1.0,1.0,0.5,0.018216109800166226,0.0645828169270964,26.0,13.0,13.0,0.5,1.8898562864404314,0.06261989039250651,7.0,1.0,6.0,0.14285714285714285,0.6957503597120959,0.06190399036627032,85.0,44.0,41.0,0.5176470588235295,,,,0.0,136047.0,136049.0,136147.0,136149.0,136172.0,136198.0,136215.0,136222.0,136455.0,136526.0
127,127,137050.8066573379,0.13724963038430651,2.5479654008640567,137129.91908079816,-0.19519270791854623,0.14847536803778444,137185.65473145113,1.7825392884246705,10.737783233031937,137214.4246609001,-0.37926706504954455,2.5479654008640567,137492.50492039198,0.49627210793744697,36.671246236598684,0.9573621746801326,80.0,77.0,94.0,308.0,402.0,3.0,1003.0,1001.0,3.0,2.0,1.0,0.6666666666666666,0.11801135533796732,0.05812883484679391,2.0,1.0,1.0,0.5,0.2175808646910672,0.057457789867349014,26.0,13.0,13.0,0.5,1.8106443343710383,0.056535679359452605,10.0,1.0,9.0,0.1,0.7339025042346462,0.05738999565855401,82.0,44.0,38.0,0.5365853658536586,,,,0.0,137049.0,137052.0,137129.0,137131.0,137173.0,137199.0,137213.0,137223.0,137453.0,137531.0
128,128,138048.0121477394,0.13587645869562656,2.5479654008640567,138142.4246609001,-0.17643508662896346,0.6528226851271602,138185.37195460664,1.7894247967914316,10.80940013912457,138214.89141974444,-0.3658197372214912,2.5479654008640567,138492.6096274283,0.4945869335794549,37.48323373884663,0.9594845705651942,94.0,92.0,75.0,313.0,388.0,2.0,997.0,999.0,2.0,1.0,1.0,0.5,0.26857979422696704,0.05539933920164097,3.0,1.0,2.0,0.3333333333333333,0.1518360452670433,0.05539933920164097,27.0,13.0,14.0,0.48148148148148145,1.980822400199694,0.05539933920164097,4.0,3.0,1.0,0.75,0.8027907366723452,0.05539933920164097,103.0,54.0,49.0,0.5242718446601942,,,,0.0,138047.0,138049.0,138141.0,138144.0,138172.0,138199.0,138212.0,138216.0,138470.0,138529.0
129,129,140046.42446139493,0.16617810326317337,2.5479654008640567,140123.40961278067,-0.8236754952183729,0.22429974486185988,140185.6124498214,1.7550213591399864,11.04942241320901,140215.21029146435,-0.28818687144432165,6.098241963266181,140492.80813839656,0.5026498710763032,37.918553429851535,0.9604536893743619,78.0,75.0,101.0,304.0,405.0,3.0,1998.0,2002.0,3.0,2.0,1.0,0.6666666666666666,0.2240339514954388,0.07043719990754087,2.0,1.0,1.0,0.5,0.20327202892611446,0.05568219053549558,28.0,14.0,14.0,0.5,1.7108378864896707,0.07937853580218134,13.0,4.0,9.0,0.3076923076923077,0.6219629299460476,0.06377806597308068,86.0,43.0,43.0,0.5,,,,0.0,140044.0,140047.0,140122.0,140124.0,140172.0,140199.0,140211.0,140223.0,140463.0,140527.0
130,130,141052.4246609001,0.11699123725131598,2.5479429690046786,141144.4246609001,-0.13000269492792446,2.5479654008640567,141185.66841489665,1.7375044878795616,11.158165112522976,141216.361705085,-0.2959528153335855,7.571920655747608,141491.49321800284,0.48600142610212094,35.30739787587305,0.9577786731866677,92.0,89.0,80.0,301.0,381.0,3.0,1006.0,998.0,3.0,1.0,2.0,0.3333333333333333,0.23784841928691813,0.057298743146770914,2.0,1.0,1.0,0.5,0.11538622270532764,0.057026428273320606,29.0,15.0,14.0,0.5172413793103449,1.6077810888950543,0.05697511541614767,17.0,6.0,11.0,0.35294117647058826,0.4966052981859516,0.05685577391579021,64.0,28.0,36.0,0.4375,,,,0.0,141051.0,141054.0,141143.0,141145.0,141173.0,141200.0,141212.0,141223.0,141463.0,141524.0
131,131,142044.4246609001,0.15498815245475198,2.5479654008640567,142143.8187193894,-0.1319597190278006,0.9440845779782489,142185.16426221444,1.7971267222821568,10.738790818061876,142222.5753390999,-0.23000563504140975,2.5479654008640567,142496.9314428973,0.49885520451600773,38.05277811729621,0.9521960427653402,101.0,97.0,82.0,300.0,382.0,4.0,992.0,999.0,4.0,3.0,1.0,0.75,0.1948111599278466,0.05710617982897134,4.0,2.0,2.0,0.5,0.0243106298123325,0.05774400472206145,28.0,13.0,15.0,0.4642857142857143,1.8145996169384007,0.05812196120279253,12.0,11.0,1.0,0.9166666666666666,0.32084946735160125,0.058252424937087564,75.0,42.0,33.0,0.56,,,,0.0,142041.0,142045.0,142142.0,142146.0,142172.0,142200.0,142212.0,142224.0,142455.0,142524.0
132,132,143051.52558115675,0.15170705782374816,7.643896202592115,143152.044649454,-0.19731212361750006,0.5898542946633295,143185.66066607193,1.7603891221291896,11.14805951781954,143215.87669549932,-0.26079033323906725,6.646376150907921,143491.04029261938,0.5000099379802061,38.05243383020312,0.962416240561469,103.0,95.0,72.0,299.0,371.0,8.0,1007.0,1001.0,11.0,4.0,7.0,0.36363636363636365,0.14426516661612532,0.05882376823106986,2.0,1.0,1.0,0.5,0.04115290207642584,0.05663805461607178,29.0,15.0,14.0,0.5172413793103449,1.6538186132382666,0.0565049393314777,13.0,6.0,7.0,0.46153846153846156,0.49509543306516746,0.056365133413390264,83.0,41.0,42.0,0.4939759036144578,,,,0.0,143048.0,143056.0,143151.0,143153.0,143172.0,143198.0,143211.0,143223.0,143450.0,143522.0
133,133,143917.96301576303,0.2110889961247403,0.12656200412182947,144136.1929494796,-0.20107715277127958,0.004112252717986653,144185.5174020039,1.7452316506660714,11.263551928037229,144216.4627631416,-0.265392956722705,7.1052211329525115,144493.003133867,0.5017769413508889,37.568364118198446,0.9576457773825551,217.0,215.0,89.0,303.0,392.0,2.0,867.0,999.0,2.0,1.0,1.0,0.5,0.17715963992670136,0.055464717669617754,2.0,1.0,1.0,0.5,0.14023269190455892,0.056143512824934606,26.0,13.0,13.0,0.5,1.651963399874032,0.05634141431152415,18.0,5.0,13.0,0.2777777777777778,0.49234687336624916,0.055062724301508485,102.0,54.0,48.0,0.5294117647058824,,,,0.0,143917.0,143919.0,144134.0,144137.0,144173.0,144199.0,144211.0,144223.0,144461.0,144526.0
134,134,145040.1111479277,0.19090204495111074,1.2305988815408424,145140.59582814184,-5.025688803723164,0.15310450670077747,145185.43973659415,1.7616714984056974,10.81701407612348,145214.84932180025,-0.31664935608688316,5.095930755126836,145484.49321800284,0.4711868694352724,37.45595115269906,0.9530136129474577,102.0,98.0,81.0,303.0,384.0,4.0,1122.0,1000.0,4.0,2.0,2.0,0.5,0.20676994667677467,0.05876732539145449,2.0,1.0,1.0,0.5,0.15646393119140115,0.05898944245925638,29.0,14.0,15.0,0.4827586206896552,1.664335179297209,0.05866856805081071,13.0,4.0,9.0,0.3076923076923077,0.5791927348951124,0.05833623723075391,91.0,39.0,52.0,0.42857142857142855,,,,0.0,145038.0,145042.0,145140.0,145142.0,145172.0,145199.0,145212.0,145221.0,145456.0,145524.0
135,135,146051.5753390999,0.11223281813788939,2.5479654008640567,146144.42466090008,-0.41680974568628765,0.31032155760968744,146185.79488519204,1.71651207185474,11.282633989287477,146215.2739826486,-0.3140151962698673,7.465675924828867,146492.48721840174,0.48764324089427546,35.16448165935532,0.957332311755122,92.0,90.0,81.0,300.0,381.0,2.0,1012.0,1003.0,2.0,1.0,1.0,0.5,0.13202276283563513,0.05835573409554837,2.0,1.0,1.0,0.5,0.08252361908345776,0.05902126422007129,28.0,15.0,13.0,0.5357142857142857,1.6589609390332596,0.058946334606825766,13.0,4.0,9.0,0.3076923076923077,0.7217728277826071,0.058946334606825766,78.0,35.0,43.0,0.44871794871794873,,,,0.0,146051.0,146053.0,146143.0,146145.0,146172.0,146199.0,146211.0,146224.0,146461.0,146524.0
136,136,148049.42466089997,0.16123764571666144,2.547965400863705,148114.33745300912,-1.338200228908881,0.154300110760137,148185.67724425258,1.7531860328466005,11.209181386293888,148215.38180626952,-0.30306429313964167,6.025722028083111,148482.79457440227,0.4882137684705196,38.71063335062213,0.9553821592556553,66.0,63.0,109.0,306.0,415.0,3.0,1997.0,2000.0,3.0,2.0,1.0,0.6666666666666666,0.12911779243562777,0.058770243174931874,2.0,1.0,1.0,0.5,0.08274036528526846,0.05900979711984617,29.0,15.0,14.0,0.5172413793103449,1.6587335352404582,0.058802043608254036,17.0,6.0,11.0,0.35294117647058826,0.5743076161278461,0.05774855322752998,95.0,41.0,54.0,0.43157894736842106,,,,0.0,148047.0,148050.0,148113.0,148115.0,148171.0,148200.0,148211.0,148222.0,148460.0,148528.0
137,137,148923.58319924222,0.4922951768783732,0.2686505865123507,149128.1537196145,-0.14784455590446435,0.6818227044085918,149185.61455320512,1.7531094379730552,11.207578724713597,149216.0955354873,-0.29322465005350584,7.200719032546155,149491.98455794936,0.5022191943185094,38.63078242182913,0.9577975417932076,204.0,202.0,98.0,300.0,398.0,2.0,875.0,1000.0,2.0,1.0,1.0,0.5,0.1786742237586619,0.05536030456285009,3.0,1.0,2.0,0.3333333333333333,0.17846410765490164,0.05571513599314059,28.0,15.0,13.0,0.5357142857142857,1.6665932306594435,0.05593925703994694,14.0,5.0,9.0,0.35714285714285715,0.6207068821140564,0.05593925703994694,88.0,44.0,44.0,0.5,,,,0.0,148923.0,148925.0,149127.0,149130.0,149173.0,149199.0,149211.0,149225.0,149453.0,149525.0
138,138,150048.57533910006,0.13239318724592092,2.5479653407495406,150152.5753390999,-0.1193715493317218,2.5479645962721555,150185.6409227111,1.7840664848581111,10.890559543985917,150216.38053399022,-0.33845594437661924,5.095930798344211,150499.08212109702,0.4680618232643505,37.544335610090776,0.9559332589492934,104.0,102.0,68.0,309.0,377.0,2.0,1125.0,1000.0,2.0,1.0,1.0,0.5,0.16793293089847358,0.06174652073564309,2.0,1.0,1.0,0.5,0.11462741841884172,0.06406502385319243,28.0,15.0,13.0,0.5357142857142857,1.6817931519010192,0.06481722231707943,6.0,2.0,4.0,0.3333333333333333,0.758200953159786,0.06376220759216807,82.0,42.0,40.0,0.5121951219512195,,,,0.0,150048.0,150050.0,150152.0,150154.0,150172.0,150198.0,150214.0,150220.0,150467.0,150529.0
139,139,151058.4246609001,0.152146805782235,2.5479654008640567,151150.5753390999,-0.15232037325445277,2.5479654008640567,151186.06985231565,1.7307503684340855,11.356843971675326,151215.42734886444,-0.3271889279555525,7.6348607604515975,151492.81220804737,0.49005873759036056,35.57298334787586,0.9546079759309118,89.0,86.0,76.0,302.0,378.0,3.0,1009.0,1001.0,3.0,1.0,2.0,0.3333333333333333,0.1572488384726636,0.060023444482291646,6.0,5.0,1.0,0.8333333333333334,0.08546355656412993,0.060281882413087996,29.0,15.0,14.0,0.5172413793103449,1.6579088585707984,0.06293801061064715,10.0,3.0,7.0,0.3,0.6921167105283846,0.06278020753405324,74.0,38.0,36.0,0.5135135135135135,,,,0.0,151057.0,151060.0,151146.0,151152.0,151171.0,151200.0,151212.0,151222.0,151459.0,151524.0
140,140,152053.4246609001,0.14385624361029384,2.5479654008639763,152107.58309851395,-0.8891295314671844,0.23250445201281647,152185.6491170089,1.7728176213241356,10.846112936142836,152217.15067819975,-0.31457753212408884,5.095930801728113,152493.34878605415,0.48598672097100204,36.75216403217156,0.9587470598055556,56.0,53.0,113.0,315.0,428.0,3.0,995.0,998.0,3.0,2.0,1.0,0.6666666666666666,0.19203280250305996,0.05937966446371408,2.0,1.0,1.0,0.5,0.12589957725745426,0.0588622909789523,27.0,13.0,14.0,0.48148148148148145,1.6976661964517406,0.058306468418937045,11.0,6.0,5.0,0.5454545454545454,0.49473070172322353,0.05835601398171806,76.0,34.0,42.0,0.4473684210526316,,,,0.0,152051.0,152054.0,152107.0,152109.0,152173.0,152200.0,152211.0,152220.0,152459.0,152535.0
141,141,153050.5753390999,0.1661437709797615,2.5479653341001502,153134.35052030795,-0.1471679066401782,0.4337293568127458,153185.62977276446,1.7807848056886981,11.06010339849504,153215.30135639946,-0.29192874680654896,6.453437881748244,153490.76822128188,0.5135241151532624,37.94759292532251,0.9626292245578674,86.0,81.0,88.0,302.0,390.0,5.0,998.0,1002.0,5.0,4.0,1.0,0.8,0.21457713383732788,0.05810798048751971,2.0,1.0,1.0,0.5,0.14284893870174142,0.057931562809725334,29.0,15.0,14.0,0.5172413793103449,1.6917239354722295,0.05974647227785861,15.0,5.0,10.0,0.3333333333333333,0.6119087953733007,0.06093087494310498,76.0,40.0,36.0,0.5263157894736842,,,,0.0,153047.0,153052.0,153133.0,153135.0,153171.0,153200.0,153210.0,153221.0,153455.0,153523.0
142,142,154043.4246609001,0.15110971375157975,2.547954812463815,154155.4246609001,-0.3282754705478845,0.4732966357519656,154185.5383646531,1.7457393414097304,11.121156376173845,154216.7260172996,-0.2772427484054041,6.539286552915866,154489.7672007033,0.49670162075455726,38.736315321664236,0.9598884024186077,112.0,107.0,67.0,303.0,370.0,5.0,992.0,996.0,5.0,1.0,4.0,0.2,0.1917705012135416,0.0539888532407808,3.0,1.0,2.0,0.3333333333333333,0.20650642991805,0.06501579893828287,29.0,15.0,14.0,0.5172413793103449,1.6323924127787675,0.06300693933075467,11.0,5.0,6.0,0.45454545454545453,0.5442569716027079,0.06081198698963612,76.0,33.0,43.0,0.4342105263157895,,,,0.0,154042.0,154047.0,154154.0,154157.0,154172.0,154200.0,154212.0,154221.0,154457.0,154524.0
143,143,155035.4246609001,0.12104854876760367,2.5479550476539767,155147.00026998602,-0.1343439618397809,5.095930801728113,155185.67496106567,1.7582793693875265,11.138404903438296,155215.0254703865,-0.31473375273187965,6.42163812509884,155491.4718119578,0.4983925212692554,36.56673382127727,0.96110793899317,110.0,108.0,78.0,302.0,380.0,2.0,992.0,1002.0,2.0,1.0,1.0,0.5,0.25470888575462175,0.06097325807101697,5.0,3.0,2.0,0.6,0.06403503407895422,0.06252525003491496,26.0,13.0,13.0,0.5,1.6898651043694513,0.06368727514773997,16.0,5.0,11.0,0.3125,0.6134929891955185,0.06194636355335819,70.0,36.0,34.0,0.5142857142857142,,,,0.0,155034.0,155036.0,155144.0,155149.0,155173.0,155199.0,155210.0,155222.0,155459.0,155524.0
144,144,156036.36456961025,0.2041567432678754,1.10198002034605,156100.6933549687,-0.18493682189874236,0.3123223256201048,156185.75502498148,1.7454625318511632,11.252778136297897,156215.87693761915,-0.27064529202966364,6.490550405776122,156491.5586471954,0.49997009711605966,38.664806705854005,0.9577678639625002,65.0,62.0,123.0,309.0,432.0,3.0,1001.0,1000.0,3.0,1.0,2.0,0.3333333333333333,0.2507484165250942,0.05979280207791672,2.0,1.0,1.0,0.5,0.09966847381940597,0.05937708493040254,27.0,13.0,14.0,0.48148148148148145,1.7726288700254598,0.059826886022699276,13.0,5.0,8.0,0.38461538461538464,0.5324533812062078,0.059546848433644446,86.0,40.0,46.0,0.46511627906976744,,,,0.0,156035.0,156038.0,156100.0,156102.0,156173.0,156200.0,156211.0,156223.0,156452.0,156532.0
145,145,158053.4246587309,0.16567760290450181,2.547965400864022,158151.5753390999,-0.09652806816532898,2.5479654008640567,158185.52078824805,1.7610110341694916,11.24318112850956,158216.7260172996,-0.3012501585590661,6.530339040508649,158492.31238198275,0.5102897551799723,38.02816850070303,0.9550395844672163,100.0,97.0,70.0,302.0,372.0,3.0,2017.0,2000.0,3.0,2.0,1.0,0.6666666666666666,0.2524276050091778,0.05965020943259598,2.0,1.0,1.0,0.5,0.1467772336292966,0.05970707577733802,28.0,15.0,13.0,0.5357142857142857,1.7052539530468742,0.05977551010473438,15.0,8.0,7.0,0.5333333333333333,0.5072348152768877,0.06035208805715257,87.0,44.0,43.0,0.5057471264367817,,,,0.0,158051.0,158054.0,158151.0,158153.0,158171.0,158199.0,158211.0,158221.0,158455.0,158523.0
146,146,159054.0820938277,0.13254533789015188,2.5479654008640567,159146.07638348715,-0.12241881688666281,1.6983742043925234,159185.53613344987,1.7656784219500354,10.789781325341835,159213.4246609001,-0.37859946734846983,2.5479654008640567,159492.52516767645,0.4975253457232427,35.87168561382388,0.9551892589253446,92.0,90.0,73.0,315.0,388.0,2.0,1001.0,1000.0,2.0,1.0,1.0,0.5,0.19505382209774452,0.0626034761071527,3.0,1.0,2.0,0.3333333333333333,0.12122644251221776,0.06145201801227233,28.0,14.0,14.0,0.5,1.7082017054496144,0.06087549512960159,6.0,1.0,5.0,0.16666666666666666,0.8160694023462185,0.062285142965529824,77.0,37.0,40.0,0.4805194805194805,,,,0.0,159053.0,159055.0,159145.0,159148.0,159172.0,159200.0,159212.0,159218.0,159457.0,159533.0
147,147,160049.69864360054,0.13744217407307868,10.191861580292812,160101.71058090928,-79.61656053002004,0.08055543019439634,160185.73217511506,1.7622843462260025,11.192277279761962,160215.73596812694,-0.31405170910995456,5.095930801728113,160491.33206820063,0.5068662584797762,39.33566019779848,0.9652836412342467,57.0,47.0,124.0,305.0,429.0,10.0,994.0,1002.0,10.0,6.0,4.0,0.6,0.2347152635143122,0.05096165900289695,2.0,1.0,1.0,0.5,0.13439535866835153,0.05549201699840855,27.0,15.0,12.0,0.5555555555555556,1.7357717747512091,0.08220695319771744,13.0,4.0,9.0,0.3076923076923077,0.6156025988045469,0.06382172956982372,99.0,49.0,50.0,0.494949494949495,,,,0.0,160044.0,160054.0,160101.0,160103.0,160172.0,160198.0,160213.0,160225.0,160449.0,160530.0
148,148,161048.4246609001,0.1621941333016744,2.5479652737494374,161138.1161175304,-0.15407327991022915,0.5649826942073675,161185.52520257697,1.783038993842735,10.849046023391805,161217.15067819975,-0.275340682525769,5.095930801176371,161491.23600524332,0.5109352606186492,37.821269020252764,0.9640464148497663,90.0,87.0,86.0,303.0,389.0,3.0,1000.0,999.0,3.0,1.0,2.0,0.3333333333333333,0.2536157615096332,0.05383608941312568,2.0,1.0,1.0,0.5,0.1325280690652045,0.05383608941312568,27.0,14.0,13.0,0.5185185185185185,1.6746102622721932,0.05383608941312568,11.0,5.0,6.0,0.45454545454545453,0.521763128189417,0.05383608941312568,88.0,44.0,44.0,0.5,,,,0.0,161047.0,161050.0,161137.0,161139.0,161172.0,161199.0,161216.0,161223.0,161456.0,161526.0
149,149,161823.33650135604,0.416895269680038,0.2580668411617895,162066.28197495954,-0.2502767452291258,0.23207526764247222,162185.58410338234,1.7533913693735184,10.884514455537651,162215.8606704696,-0.3064629416547515,5.095930801657974,162490.19186160344,0.5035741464420552,36.76729121119665,0.9585533271814667,242.0,240.0,155.0,311.0,466.0,2.0,775.0,999.0,2.0,1.0,1.0,0.5,0.18820729530120586,0.058697153419805935,2.0,1.0,1.0,0.5,0.20357907361692149,0.05646431046426373,27.0,14.0,13.0,0.5185185185185185,1.8217030979471658,0.05888212903478929,5.0,2.0,3.0,0.4,0.6729178586445547,0.0583879320218132,76.0,34.0,42.0,0.4473684210526316,,,,0.0,161822.0,161824.0,162064.0,162067.0,162172.0,162199.0,162214.0,162219.0,162456.0,162530.0
150,150,162830.42446046605,1.435739534624093,0.19938200393107858,163096.42363478252,-0.3969233493085116,0.2859721917163884,163185.70389330544,1.7860284147105752,10.810088876037508,163216.0639907312,-0.25442153830486525,7.6438680003154476,163492.26705807884,0.47916187862833914,36.62039643691281,0.9612067832379565,266.0,264.0,126.0,307.0,433.0,2.0,1007.0,1001.0,2.0,1.0,1.0,0.5,0.20620730912884822,0.05985702320808123,2.0,1.0,1.0,0.5,0.10916640167612333,0.05960954004056754,26.0,13.0,13.0,0.5,1.658375392629989,0.060277164793977746,7.0,2.0,5.0,0.2857142857142857,0.5997357398432673,0.060825324628610664,69.0,33.0,36.0,0.4782608695652174,,,,0.0,162829.0,162831.0,163095.0,163097.0,163173.0,163199.0,163214.0,163221.0,163459.0,163528.0
151,151,164053.5753390999,0.11794140192880945,2.5479649298929385,164138.93149773966,-0.1689019538984793,0.5959174852517148,164185.53712525064,1.7537142392645901,10.461047840435794,164219.5753390999,-0.4011985674395617,2.547965115031856,164491.19185612866,0.48543853315673746,33.047541097197154,0.9485279097449524,86.0,83.0,84.0,299.0,383.0,3.0,1224.0,999.0,3.0,2.0,1.0,0.6666666666666666,0.0677828682029584,0.060673298564460264,2.0,1.0,1.0,0.5,0.1800195334719797,0.06052621653545801,26.0,14.0,12.0,0.5384615384615384,1.7498734573437194,0.05998857371129725,3.0,1.0,2.0,0.3333333333333333,0.5650123130689679,0.0599724623111167,64.0,34.0,30.0,0.53125,,,,0.0,164052.0,164055.0,164138.0,164140.0,164172.0,164198.0,164219.0,164222.0,164457.0,164521.0
152,152,165070.5753390999,0.12321912675588506,2.5479654008640567,165149.66700736183,-0.10240432073170075,2.5479654008640567,165185.2534639734,1.7834360000213223,10.636688961605847,165219.5753390999,-0.33775510641304934,2.5479654008640567,165492.550875235,0.49422239234431575,37.64566194214446,0.9567629820319299,79.0,76.0,74.0,291.0,365.0,3.0,1017.0,998.0,3.0,1.0,2.0,0.3333333333333333,0.10434635152477713,0.05827531004839983,2.0,1.0,1.0,0.5,0.018688570472331772,0.04996831081160822,29.0,14.0,15.0,0.4827586206896552,1.7832122686399001,0.08111770019424679,4.0,1.0,3.0,0.25,0.5035682829695225,0.08505616188103975,75.0,42.0,33.0,0.56,,,,0.0,165070.0,165073.0,165149.0,165151.0,165173.0,165199.0,165219.0,165223.0,165453.0,165514.0
153,153,166054.8086987746,0.19360452427694316,0.6805105865454747,166135.09079464176,-0.16963273238178325,-0.16984406140953734,166185.7144804229,1.7661006730368256,10.840352393799044,166215.16786349964,-0.3609151185482976,5.0959305417820175,166495.35610380172,0.4732316327540402,36.76924832283574,0.9553905113334304,80.0,78.0,88.0,299.0,387.0,2.0,984.0,1002.0,2.0,1.0,1.0,0.5,0.1731394579274621,0.053960186693456,2.0,1.0,1.0,0.5,0.10124203335318696,0.06752471260347488,26.0,13.0,13.0,0.5,1.8440265162277194,0.0917016798763442,11.0,4.0,7.0,0.36363636363636365,0.7332903590503224,0.07598821617332921,80.0,42.0,38.0,0.525,,,,0.0,166054.0,166056.0,166134.0,166136.0,166173.0,166199.0,166214.0,166222.0,166462.0,166521.0
154,154,167043.3564133036,0.3722775721807926,0.26882228893565857,167108.32566863095,-0.1346008153615435,0.8082245583021402,167185.71263771076,1.7576038169319432,11.083632642020733,167216.30135639946,-0.2847781991401222,7.1775590520649875,167492.08018963458,0.4933725728206638,36.80935210490521,0.9631621536485229,65.0,63.0,115.0,304.0,419.0,2.0,988.0,997.0,2.0,1.0,1.0,0.5,0.2107469791668577,0.05153542210504081,3.0,1.0,2.0,0.3333333333333333,0.11437990464443099,0.05564410841704582,26.0,14.0,12.0,0.5384615384615384,1.685696990190819,0.05439334508300853,11.0,5.0,6.0,0.45454545454545453,0.6366818609122167,0.0566696557235278,93.0,46.0,47.0,0.4946236559139785,,,,0.0,167042.0,167044.0,167107.0,167110.0,167173.0,167198.0,167211.0,167222.0,167454.0,167526.0
155,155,168051.5755988116,0.30790643946921675,0.6564947197180594,168128.5850212996,-0.39026326283390406,0.2954048663435771,168185.89984164826,1.7569489646354048,11.181380923049755,168215.16525284987,-0.3261437634479683,6.516035399701883,168501.60271279886,0.5980887309410539,20.383723206911988,0.9124415698668994,78.0,75.0,94.0,291.0,385.0,3.0,1009.0,1003.0,3.0,2.0,1.0,0.6666666666666666,0.23669732877662342,0.05844354054257982,2.0,1.0,1.0,0.5,0.14735248618136051,0.05844354054257982,27.0,14.0,13.0,0.5185185185185185,1.8412144245980056,0.05844354054257982,10.0,3.0,7.0,0.3,0.6958365701674061,0.05844354054257982,91.0,56.0,35.0,0.6153846153846154,,,,0.0,168050.0,168053.0,168128.0,168130.0,168172.0,168199.0,168212.0,168222.0,168473.0,168513.0
156,156,169053.15067819975,0.11719555991466149,5.09593076774763,169114.1009598674,-0.1340502808216273,0.505050665713331,169185.62852415486,1.7718093147632419,10.976451133365758,169215.8399987068,-0.30504264689234617,5.095930801728113,169501.75339099858,0.5635935921638444,25.47965400864057,0.9326582542130547,61.0,57.0,108.0,295.0,403.0,4.0,1002.0,1000.0,15.0,12.0,3.0,0.8,0.05491652108482404,0.05871030657320524,2.0,1.0,1.0,0.5,0.15618381062187123,0.05813936157016793,26.0,13.0,13.0,0.5,1.7892187496335052,0.059232407767298115,10.0,4.0,6.0,0.4,0.5616650857091143,0.06053327472195028,84.0,48.0,36.0,0.5714285714285714,,,,0.0,169052.0,169056.0,169113.0,169115.0,169173.0,169199.0,169213.0,169221.0,169458.0,169516.0
157,157,170033.150876844,0.1576062817715934,0.3727986045864197,170128.69788924005,-0.22637285074778407,0.5732010629587664,170185.53122245191,1.7476174565491487,10.638002051733627,170217.15067819975,-0.3424278159276813,5.095926493748584,170491.65262909033,0.4797084678959639,34.7590553166217,0.9535936858638533,95.0,93.0,93.0,303.0,396.0,2.0,979.0,1000.0,2.0,1.0,1.0,0.5,0.1829459363417847,0.061735596154795604,3.0,2.0,1.0,0.6666666666666666,0.23683706110375197,0.06145604905910488,27.0,14.0,13.0,0.5185185185185185,1.7770314498490873,0.06225303292296773,10.0,7.0,3.0,0.7,0.6181645859340239,0.0628378185021898,87.0,43.0,44.0,0.4942528735632184,,,,0.0,170032.0,170034.0,170127.0,170130.0,170172.0,170199.0,170213.0,170220.0,170462.0,170523.0
158,158,171060.6190441931,0.12708580820803234,2.5479654004900802,171116.65604549556,-0.1473927226790864,0.6356531567024218,171185.36603604324,1.773091544715253,10.861505999343917,171215.5753390999,-0.4032917063244311,2.5479654008640567,171491.51865559065,0.4908029192617761,37.20553802565784,0.9536894651317004,55.0,53.0,102.0,306.0,408.0,2.0,1028.0,998.0,2.0,1.0,1.0,0.5,0.21630777573762203,0.06280295027968913,3.0,2.0,1.0,0.6666666666666666,0.09448065892249399,0.06372127366853395,27.0,13.0,14.0,0.48148148148148145,1.8661220830418297,0.06108672623887665,6.0,5.0,1.0,0.8333333333333334,0.6308248582442173,0.06306135350540533,69.0,35.0,34.0,0.5072463768115942,,,,0.0,171060.0,171062.0,171115.0,171118.0,171172.0,171199.0,171211.0,171217.0,171461.0,171523.0
159,159,172028.61374742747,0.2434781640556,0.528884403058428,172141.42460129812,-0.805073235875988,0.22882477941219345,172185.61734463632,1.7905805137125452,11.02752190750804,172215.70408242702,-0.3231097767748531,5.0959308017242595,172491.75845482163,0.49826991792070985,37.0488213703039,0.9583460150735814,112.0,109.0,82.0,298.0,380.0,3.0,968.0,1000.0,3.0,2.0,1.0,0.6666666666666666,0.17660929464697683,0.05733375488769576,2.0,1.0,1.0,0.5,0.08581372056840458,0.05651560590766454,28.0,14.0,14.0,0.5,1.613077364725979,0.056116941874710696,7.0,2.0,5.0,0.2857142857142857,0.669590173999266,0.05605409642550384,69.0,42.0,27.0,0.6086956521739131,,,,0.0,172027.0,172030.0,172139.0,172142.0,172173.0,172200.0,172214.0,172221.0,172461.0,172519.0
160,160,173048.99670925856,0.12136692000937503,2.547957649703086,173142.2858050756,-0.19398886851848063,0.5261683880060369,173185.6935505919,1.7245515933217992,10.912083962281775,173216.15067820618,-0.3568722770752882,5.095930801725655,173492.1513853602,0.4886106589732223,34.726422617277194,0.9563486056471193,93.0,89.0,79.0,294.0,373.0,4.0,1020.0,999.0,4.0,1.0,3.0,0.25,0.19138468997088506,0.0590001730644584,2.0,1.0,1.0,0.5,0.1076073097983153,0.058377996536527914,27.0,14.0,13.0,0.5185185185185185,1.7237652811049546,0.05846745870133587,10.0,6.0,4.0,0.6,0.5660269519010117,0.05846745870133587,65.0,36.0,29.0,0.5538461538461539,,,,0.0,173048.0,173052.0,173141.0,173143.0,173173.0,173199.0,173215.0,173220.0,173460.0,173514.0
161,161,174040.5792889555,0.1967456602618385,0.9385474204731359,174147.5753390999,-0.5120231176957007,0.3078046664789214,174185.48668426299,1.7836186777250176,10.746843934112077,174215.4242347501,-0.3447447348357044,2.5479654008640567,174491.69703309887,0.5130531455481081,36.227475235816705,0.953095869856027,108.0,105.0,69.0,308.0,377.0,3.0,992.0,1003.0,3.0,2.0,1.0,0.6666666666666666,0.2117723597935477,0.06003707408680363,2.0,1.0,1.0,0.5,0.08405161552057068,0.06003707408680363,27.0,14.0,13.0,0.5185185185185185,1.7533238038924261,0.06003707408680363,2.0,1.0,1.0,0.5,0.7404447202011392,0.06003707408680363,80.0,37.0,43.0,0.4625,,,,0.0,174039.0,174042.0,174147.0,174149.0,174173.0,174198.0,174214.0,174216.0,174455.0,174524.0
