,cycle,p_center,p_height,p_width,q_center,q_height,q_width,r_center,r_height,r_width,s_center,s_height,s_width,t_center,t_height,t_width,r_squared,pr_interval,pr_segment,qrs_duration,st_segment,qt_interval,p_duration,pp_interval,rr_interval,fwhm_p,rise_time_p,decay_time_p,rise_decay_symmetry_p,sharpness_deriv_p,sharpness_diff_p,fwhm_q,rise_time_q,decay_time_q,rise_decay_symmetry_q,sharpness_deriv_q,fwhm_r,rise_time_r,decay_time_r,rise_decay_symmetry_r,sharpness_deriv_r,sharpness_diff_r,fwhm_s,rise_time_s,decay_time_s,rise_decay_symmetry_s,sharpness_deriv_s,fwhm_t,rise_time_t,decay_time_t,rise_decay_symmetry_t,sharpness_deriv_t,sharpness_diff_t,Average_Heart_Rate,SDNN,RMSSD,NN50,p_on,p_off,q_on,q_off,r_on,r_off,s_on,s_off,t_on,t_off
0,0,0.0,0.0,0.0,0.0,0.0,0.0,0.0,0.0,0.0,0.0,0.0,0.0,0.0,0.0,0.0,0.0,0.0,0.0,0.0,0.0,0.0,0.0,0.0,0.0,0.0,0.0,0.0,0.0,0.0,0.0,0.0,0.0,0.0,0.0,0.0,0.0,0.0,0.0,0.0,0.0,0.0,0.0,0.0,0.0,0.0,0.0,0.0,0.0,0.0,0.0,0.0,0.0,60.00001376478868,233.8534629749987,333.0084619259482,31.0,,,,,,,,,,
1,1,2040.5753390998561,0.22314728292981004,1.9286070603201482,2134.605488593295,-1.3731689028198217,0.2114134052660813,2185.688895885737,1.787764432857227,11.137658985196646,2215.8493218002877,-0.301998137253355,5.095930801728113,2502.3013563994245,0.7033481899017603,10.191861603456227,0.7806218347324659,94.0,92.0,87.0,287.0,374.0,2.0,,,2.0,1.0,1.0,0.5,0.3935416182272372,0.11029409002517505,2.0,1.0,1.0,0.5,0.22857307735551824,0.10945443717577368,27.0,13.0,14.0,0.48148148148148145,1.7041178530032863,0.10984599353662916,8.0,3.0,5.0,0.375,0.7774144699110268,0.11058135425001617,38.0,27.0,11.0,0.7105263157894737,,,,0.0,2040.0,2042.0,2134.0,2136.0,2173.0,2199.0,2213.0,2221.0,2496.0,2508.0
2,2,3043.0042579761785,0.2860452557658627,0.10543910614249659,3116.7747071325425,-0.21713393208192672,0.009206215033566056,3185.7537752667226,1.7116469074185086,11.426515286685557,3214.2412191619683,-0.3584957044020193,5.095930801648194,3518.1506819819597,0.5611591359675259,5.095930648234337,0.729035640391004,74.0,72.0,100.0,305.0,405.0,2.0,1002.0,1002.0,2.0,1.0,1.0,0.5,0.29614771085170544,0.10924815654046371,2.0,1.0,1.0,0.5,0.19603207287797714,0.11559350971525142,29.0,15.0,14.0,0.5172413793103449,1.6098354423025194,0.11382278941051113,4.0,2.0,2.0,0.5,0.8740655566808619,0.11521294279182087,10.0,5.0,5.0,0.5,,,,0.0,3042.0,3044.0,3116.0,3118.0,3172.0,3200.0,3212.0,3216.0,3517.0,3521.0
3,3,4047.421573619227,1.0719489641677826,0.274682478284624,4085.575839151113,-0.9959879121246834,0.2809664979426875,4185.560707865119,1.7425610599136034,10.530347967218582,4216.03069528012,-0.41574335132297746,2.5479654008640567,4482.123304500719,0.5441431233018849,12.739827004320285,0.792586515665128,39.0,37.0,135.0,265.0,400.0,2.0,1004.0,995.0,2.0,1.0,1.0,0.5,0.37805139743678123,0.11484018749161683,2.0,1.0,1.0,0.5,0.3443728639195314,0.13055983594003268,26.0,12.0,14.0,0.46153846153846156,1.6017766574823074,0.12475345774708758,5.0,1.0,4.0,0.2,0.7349394555910835,0.1023914502986161,24.0,21.0,3.0,0.875,,,,0.0,4046.0,4048.0,4085.0,4087.0,4174.0,4200.0,4215.0,4220.0,4473.0,4485.0
4,4,5080.249163686177,10.840558584631601,-0.09278092595114525,5106.122670394904,-0.8150320254199629,-0.10142303713574188,5185.544983938118,1.725815174993134,11.035882182197389,5214.510714239782,-0.3509935922346152,5.625452746368565,5473.273982700431,0.5676002773335775,7.64389620259217,0.7480042035110513,25.0,23.0,118.0,253.0,371.0,2.0,1033.0,1003.0,2.0,1.0,1.0,0.5,0.12375256258594197,0.1130582591520777,2.0,1.0,1.0,0.5,0.47957908013303924,0.11329537399085102,26.0,14.0,12.0,0.5384615384615384,1.8188674366230488,0.11407484465721494,11.0,4.0,7.0,0.36363636363636365,0.6927208734592818,0.11390655028170732,44.0,5.0,39.0,0.11363636363636363,,,,0.0,5079.0,5081.0,5104.0,5107.0,5172.0,5198.0,5211.0,5222.0,5468.0,5475.0
5,5,6054.392811994459,0.16046443482848854,7.64389620259217,6079.208940438735,-3.7950395303273567,0.09051983562943641,6185.2784491886705,1.7508570857243477,10.506838357712784,6221.575339099857,-0.33710427826443384,2.547965400864024,6505.726017299569,0.6736507235839128,7.64389620259217,0.7488835200766483,30.0,21.0,145.0,287.0,432.0,9.0,974.0,998.0,9.0,6.0,3.0,0.6666666666666666,0.31508331566877923,0.11424703781944388,2.0,1.0,1.0,0.5,0.3234459067328793,0.11424703781944388,26.0,12.0,14.0,0.46153846153846156,1.641921110843941,0.11424703781944388,4.0,3.0,1.0,0.75,0.4433053784888124,0.11424703781944388,52.0,30.0,22.0,0.5769230769230769,,,,0.0,6048.0,6057.0,6078.0,6080.0,6173.0,6198.0,6219.0,6223.0,6476.0,6510.0
6,6,6822.956060492125,0.32359744544731467,0.11415902347640779,7116.134188773351,-0.3171654450726493,0.495766166464539,7185.633853028925,1.7229865174410925,10.839765625624382,7215.607169631159,-0.3494519271719185,6.529536170447383,7475.849321800287,0.62270253814702,5.095930801728113,0.7168970663513783,293.0,291.0,105.0,272.0,377.0,2.0,769.0,999.0,2.0,1.0,1.0,0.5,0.15619079410964526,0.12773759946177024,2.0,1.0,1.0,0.5,0.3227482985505047,0.1251563069983763,24.0,14.0,10.0,0.5833333333333334,1.5081179752141234,0.12275350527463814,7.0,3.0,4.0,0.42857142857142855,0.7639366880813312,0.12046472146384701,37.0,6.0,31.0,0.16216216216216217,,,,0.0,6822.0,6824.0,7115.0,7117.0,7172.0,7196.0,7213.0,7220.0,7473.0,7492.0
7,7,8047.424642248009,4.5317570158648115,0.18648298022206283,8108.575339099857,-0.7874879205194021,0.3284207041691251,8185.3442957472835,1.806997707597271,10.19584401509299,8217.575339099858,-0.3762891272801444,2.5479654008640567,8491.45752920412,0.6126152518176388,10.191861603456227,0.7712210475065819,62.0,60.0,112.0,275.0,387.0,2.0,1224.0,1001.0,2.0,1.0,1.0,0.5,0.32512007375767926,0.11603206894530799,2.0,1.0,1.0,0.5,0.4131327298469015,0.12005308122096155,26.0,12.0,14.0,0.46153846153846156,1.8554589088416278,0.12284912164227543,3.0,1.0,2.0,0.3333333333333333,0.6504106988652251,0.12121792623917677,11.0,7.0,4.0,0.6363636363636364,,,,0.0,8046.0,8048.0,8108.0,8110.0,8173.0,8198.0,8217.0,8220.0,8484.0,8495.0
8,8,9049.424655697838,0.9738881670375927,0.2780291440240278,9140.575339099858,-0.40533432293466604,0.41219297940208643,9185.8222712936,1.8146850268072703,10.687600285068106,9217.575339099858,-0.3288279663173422,2.547965400862823,9482.842552360631,0.721884064155977,5.09593080172751,0.7265258915235943,91.0,89.0,80.0,270.0,350.0,2.0,1002.0,997.0,2.0,1.0,1.0,0.5,0.3240930453395787,0.11791468345852349,3.0,2.0,1.0,0.6666666666666666,0.2812661493451245,0.11545723588633253,25.0,13.0,12.0,0.52,1.8648746779262053,0.11683302702138186,6.0,5.0,1.0,0.8333333333333334,0.6050981657837695,0.11775807846385543,52.0,20.0,32.0,0.38461538461538464,,,,0.0,9048.0,9050.0,9139.0,9142.0,9173.0,9198.0,9213.0,9219.0,9480.0,9489.0
9,9,10133.308736242685,0.7688587452201014,0.25153046427403686,10150.27050922467,-0.3023295802025479,0.5566774715412114,10185.683614077869,1.7917184947267297,10.604190094537627,10218.575339099858,-0.4057059395020977,2.5479654008640567,10492.971203611256,0.588925757447051,28.027619409504627,0.8653987804587496,17.0,15.0,71.0,285.0,356.0,2.0,1084.0,1004.0,2.0,1.0,1.0,0.5,0.34867232070542536,0.1187740829768997,2.0,1.0,1.0,0.5,0.02941904397385972,0.1193989976717039,24.0,12.0,12.0,0.5,1.780735376154918,0.12679954158614934,6.0,5.0,1.0,0.8333333333333334,0.6346538325302595,0.11509549001686886,48.0,24.0,24.0,0.5,,,,0.0,10132.0,10134.0,10149.0,10151.0,10174.0,10198.0,10214.0,10220.0,10475.0,10505.0
10,10,10968.415584439997,0.8208643134821372,0.2767828718160795,11147.606615858409,-1.147741382495259,0.23758626757617687,11185.209014180024,1.829178973809324,10.193348907674777,11222.147388729365,-0.3790636727396033,0.6120654705088128,11485.39728720115,0.6005803255543901,20.383723206912443,0.8134994849790834,180.0,178.0,76.0,267.0,343.0,2.0,835.0,998.0,2.0,1.0,1.0,0.5,0.16969203891741244,0.12195918084644561,2.0,1.0,1.0,0.5,0.23934090242632788,0.12391789087623625,24.0,11.0,13.0,0.4583333333333333,1.9756882047969506,0.12399237293219759,2.0,1.0,1.0,0.5,0.5682164218543275,0.12135208277936829,62.0,26.0,36.0,0.41935483870967744,,,,0.0,10967.0,10969.0,11147.0,11149.0,11174.0,11198.0,11221.0,11223.0,11467.0,11490.0
11,11,13067.424660900142,0.3907244146058827,1.5417062145453237,13124.70294305286,-0.5915611128506583,0.2093498452648067,13185.379893261043,1.815113195055075,11.055247042722074,13214.424660900142,-0.35144748793793273,2.5479654008640567,13491.606242985577,0.5310407313989791,40.76744641382167,0.8809154890468849,58.0,54.0,92.0,295.0,387.0,4.0,2099.0,2002.0,4.0,1.0,3.0,0.25,0.2944575095766442,0.11407232858555783,2.0,1.0,1.0,0.5,0.004004921186277835,0.11048674530668172,27.0,13.0,14.0,0.48148148148148145,1.8452460631798855,0.11144104921311218,3.0,1.0,2.0,0.3333333333333333,0.7573753140283899,0.1101051454387808,69.0,43.0,26.0,0.6231884057971014,,,,0.0,13066.0,13070.0,13124.0,13127.0,13173.0,13199.0,13213.0,13216.0,13469.0,13511.0
12,12,13859.998858059627,0.34083154018738804,0.5571897805830403,14121.424549594829,-2.3079974067308373,0.20751109302055223,14185.615528410746,1.7519350677955412,11.062562769670828,14213.036186325484,-0.44926921128275826,2.5479654008640567,14490.849321800286,0.6628888850013059,5.095930801728113,0.7296730581909935,261.0,259.0,95.0,281.0,376.0,2.0,793.0,998.0,2.0,1.0,1.0,0.5,0.34251029014150397,0.1116941527383061,2.0,1.0,1.0,0.5,0.13337337853221115,0.1116941527383061,27.0,14.0,13.0,0.5185185185185185,1.648424338586859,0.1116941527383061,3.0,1.0,2.0,0.3333333333333333,1.032091223591601,0.1116941527383061,32.0,27.0,5.0,0.84375,,,,0.0,13859.0,13861.0,14120.0,14122.0,14173.0,14199.0,14212.0,14215.0,14488.0,14496.0
13,13,15045.711218440907,0.2481886757180357,0.8911832768447397,15144.038187359525,-0.2630317882218428,0.7424880933187417,15185.751067927498,1.7497522368562972,10.718513952022153,15214.849321800286,-0.35903370826010156,5.095930801728113,15493.186272045452,0.6798735991228119,10.191861603456227,0.770279794827899,99.0,96.0,74.0,281.0,355.0,3.0,1186.0,999.0,3.0,2.0,1.0,0.6666666666666666,0.30962004441885405,0.11540675197427239,2.0,1.0,1.0,0.5,0.26666819483583587,0.11540675197427239,27.0,14.0,13.0,0.5185185185185185,1.6591461142748818,0.11540675197427239,5.0,3.0,2.0,0.6,0.7090546563182277,0.11540675197427239,70.0,39.0,31.0,0.5571428571428572,,,,0.0,15044.0,15047.0,15143.0,15145.0,15172.0,15199.0,15212.0,15217.0,15485.0,15498.0
14,14,16052.613626542712,1.0840045102083473,0.2257801699594909,16127.575925379375,-0.7505232529562231,0.296317000280959,16185.30280213526,1.8023653079187798,10.548242745174296,16219.575339099858,-0.326542875203467,2.547965400864035,16491.6513868903,0.5472235165764663,22.93168860777651,0.8536652548447707,75.0,73.0,94.0,285.0,379.0,2.0,1007.0,1004.0,2.0,1.0,1.0,0.5,0.242953538692942,0.11242583651708456,2.0,1.0,1.0,0.5,0.31375127511153666,0.11242583651708456,30.0,14.0,16.0,0.4666666666666667,1.5245660216748669,0.11242583651708456,4.0,3.0,1.0,0.75,0.43852433808277635,0.11242583651708456,38.0,10.0,28.0,0.2631578947368421,,,,0.0,16052.0,16054.0,16127.0,16129.0,16173.0,16198.0,16217.0,16221.0,16482.0,16506.0
15,15,17039.57540380391,0.6956196266124922,0.32695849562799717,17140.149779702075,-0.3543053435913446,0.8076879441493707,17186.080498060717,1.768944468992093,11.085491901903362,17217.50600124716,-0.3009227981468461,7.6438962025229,17504.30135639943,0.5926794473214995,10.191861603456227,0.7789492587547415,98.0,96.0,87.0,286.0,373.0,2.0,987.0,1001.0,2.0,1.0,1.0,0.5,0.3081960384064066,0.11219144726311536,4.0,2.0,2.0,0.5,0.42502364620154726,0.11262582923232924,27.0,14.0,13.0,0.5185185185185185,1.664920441430624,0.11268874828275337,9.0,3.0,6.0,0.3333333333333333,0.6363977967754664,0.11268874828275337,69.0,48.0,21.0,0.6956521739130435,,,,0.0,17039.0,17041.0,17137.0,17142.0,17173.0,17199.0,17215.0,17224.0,17486.0,17510.0
16,16,18073.78510054876,0.3806251889915713,-0.02483900124597682,18145.998533588365,-0.34502194957787163,0.6249554728237398,18185.497418597002,1.7593137734977744,10.112611554971075,18221.57536679421,-0.4131980236264753,2.5479052194272738,18470.424617409975,0.6097346423856447,2.5479653963834745,0.7105436710338989,72.0,70.0,78.0,259.0,337.0,2.0,1034.0,996.0,2.0,1.0,1.0,0.5,0.27542769997064276,0.11194287689215784,2.0,1.0,1.0,0.5,0.38799077255324815,0.11114833797837628,27.0,13.0,14.0,0.48148148148148145,1.9539049197190952,0.1114253888492517,11.0,10.0,1.0,0.9090909090909091,0.5942864080511151,0.11269716850898169,13.0,1.0,12.0,0.07692307692307693,,,,0.0,18073.0,18075.0,18145.0,18147.0,18172.0,18199.0,18212.0,18223.0,18469.0,18482.0
17,17,19097.670503209,0.668240806347998,0.2820237075823297,19145.160721046985,-0.29431819687546784,0.7406853394464071,19185.24028052745,1.7604178549539589,10.7618240441528,19215.424660900127,-0.34901572875523446,2.5479654008639967,19491.858322826487,0.5114387899812212,36.40551916715,0.8796888225122421,47.0,45.0,75.0,295.0,370.0,2.0,1024.0,1001.0,2.0,1.0,1.0,0.5,0.2446820802936943,0.11451051705705859,3.0,1.0,2.0,0.3333333333333333,0.18429192148239923,0.11490927532581822,27.0,13.0,14.0,0.48148148148148145,1.9102351897566554,0.11395491980301858,5.0,1.0,4.0,0.2,0.7287858120927618,0.11417230610474212,50.0,28.0,22.0,0.56,,,,0.0,19097.0,19099.0,19144.0,19147.0,19172.0,19199.0,19214.0,19219.0,19469.0,19514.0
18,18,19984.103220684156,0.42287859639053893,-0.09051730376571888,20152.956742590075,-0.3604942345316285,0.5075356353504918,20185.273926086513,1.7577065458340908,10.974014331713596,20216.150678199996,-0.3591173925066708,5.095930225093039,20487.5479652604,0.6218969248910885,15.287792402812698,0.8189592032023164,169.0,167.0,67.0,276.0,343.0,2.0,886.0,999.0,2.0,1.0,1.0,0.5,0.23667979855579876,0.11498440152763849,2.0,1.0,1.0,0.5,0.033884544480487944,0.115027092923906,24.0,12.0,12.0,0.5,1.9810556143221785,0.115027092923906,9.0,4.0,5.0,0.4444444444444444,0.7221255494548864,0.115027092923906,25.0,12.0,13.0,0.48,,,,0.0,19983.0,19985.0,20152.0,20154.0,20173.0,20197.0,20212.0,20219.0,20479.0,20495.0
19,19,21044.424660900142,0.2144577963124966,2.547887604748805,21127.575340469306,-0.961222917645156,0.2547367880281634,21185.381127914086,1.7519426299995202,10.933713218136942,21215.150678199716,-0.34654690343363054,5.095930801728113,21485.27398270043,0.6762573578027382,7.64389620259217,0.7636998984295498,84.0,82.0,91.0,289.0,380.0,2.0,1060.0,998.0,2.0,1.0,1.0,0.5,0.38045347768621685,0.11535745390103427,2.0,1.0,1.0,0.5,0.2589664998487886,0.11463243747014672,28.0,14.0,14.0,0.5,1.7194896015843308,0.11478891230988487,4.0,1.0,3.0,0.25,0.7194745238811467,0.11418324849831207,31.0,9.0,22.0,0.2903225806451613,,,,0.0,21043.0,21045.0,21127.0,21129.0,21171.0,21199.0,21214.0,21218.0,21481.0,21507.0
20,20,22039.42463579163,2.3203703675357197,0.21142812903741307,22086.975954392678,-0.24652317552787056,0.09358869671137499,22185.321538984674,1.8196915783910839,10.61758201030777,22215.575339099858,-0.3627527060998769,2.5479654008640567,22490.817051454982,0.6915206402118358,5.095930801728113,0.7355748266065413,48.0,46.0,131.0,285.0,416.0,2.0,995.0,1003.0,2.0,1.0,1.0,0.5,0.28114267249946645,0.11248045909426296,2.0,1.0,1.0,0.5,0.2898512841692368,0.1163764545605087,28.0,13.0,15.0,0.4642857142857143,1.857895259326279,0.11168154095964489,4.0,3.0,1.0,0.75,0.8069425231663134,0.1083345459424799,14.0,3.0,11.0,0.21428571428571427,,,,0.0,22038.0,22040.0,22086.0,22088.0,22172.0,22198.0,22213.0,22217.0,22488.0,22502.0
21,21,22889.71344584237,2.877007250990686,0.12338494112455839,23094.424660900142,-0.1999222039467636,2.5479654000059004,23185.71605897359,1.7670299525559954,10.06675859124311,23220.575339099858,-0.4188937137559224,2.5479654008640567,23492.563988190755,0.5165082827765048,20.383723206912453,0.8447442860682222,204.0,201.0,129.0,277.0,406.0,3.0,851.0,997.0,2.0,1.0,1.0,0.5,0.3022218678037337,0.10728343499952203,2.0,1.0,1.0,0.5,0.423765378253256,0.1124749282869284,25.0,13.0,12.0,0.52,1.6849668232123807,0.11100369857203347,2.0,1.0,1.0,0.5,0.6907230292825152,0.11448246663161592,58.0,30.0,28.0,0.5172413793103449,,,,0.0,22889.0,22892.0,23093.0,23095.0,23173.0,23198.0,23220.0,23222.0,23471.0,23499.0
22,22,24013.806697985765,1.8725898077029552,0.09747679902230386,24086.869424471908,-14.157897915070166,0.04599555711454512,24185.312690327875,1.7709779474862575,10.560516856436726,24222.575339099858,-0.32264588606402966,2.547965229208627,24498.30135639943,0.6336947571616727,10.191861603456227,0.7851090287842117,73.0,71.0,139.0,279.0,418.0,2.0,1124.0,1000.0,2.0,1.0,1.0,0.5,0.4420432970984375,0.11031173463060856,2.0,1.0,1.0,0.5,0.2591174197505394,0.12112553008943788,31.0,16.0,15.0,0.5161290322580645,1.44700365027159,0.11996819228828738,3.0,1.0,2.0,0.3333333333333333,0.48341614917709685,0.12397262173355872,14.0,8.0,6.0,0.5714285714285714,,,,0.0,24013.0,24015.0,24086.0,24088.0,24173.0,24199.0,24222.0,24225.0,24490.0,24504.0
23,23,25054.419542002208,0.928464643821893,0.28472241842308205,25132.935358003604,-0.2299063037594915,0.44887249751512714,25185.45767021218,1.771463990549114,11.395049984707056,25216.726026283814,-0.24697341482760987,6.460675552579894,25500.575339099858,0.7369284243974741,2.5479654008640567,0.7121622257856483,79.0,77.0,89.0,281.0,370.0,2.0,1040.0,1003.0,2.0,1.0,1.0,0.5,0.2260574723846202,0.11044307872280933,2.0,1.0,1.0,0.5,0.3400390306729211,0.11044307872280933,30.0,15.0,15.0,0.5,1.7481899424851546,0.11044307872280933,6.0,2.0,4.0,0.3333333333333333,0.7014902574302054,0.11044307872280933,6.0,5.0,1.0,0.8333333333333334,,,,0.0,25053.0,25055.0,25132.0,25134.0,25171.0,25199.0,25215.0,25221.0,25496.0,25502.0
24,24,26045.424660900142,1.4946730896265958,0.2306698636898536,26147.61562001265,-0.6555269195439116,0.31571162641553985,26185.385385716938,1.7753888788483867,10.353635749857563,26220.575339099858,-0.40599725419023697,2.5479654008640567,26465.87258069771,0.5669511945345324,2.5479654008640567,0.6894659321834177,103.0,101.0,77.0,243.0,320.0,2.0,991.0,1000.0,2.0,1.0,1.0,0.5,0.29859026273799516,0.12052223616853153,2.0,1.0,1.0,0.5,0.2094146734052168,0.11731266488601452,26.0,12.0,14.0,0.46153846153846156,1.7073954645223588,0.11434721611696246,4.0,1.0,3.0,0.25,0.5562073787964315,0.11663730339286534,3.0,2.0,1.0,0.6666666666666666,,,,0.0,26044.0,26046.0,26147.0,26149.0,26173.0,26197.0,26220.0,26224.0,26464.0,26467.0
25,25,27059.613765564576,0.7895843405776565,0.2752801654206705,27137.585754653173,-0.915284697067572,0.2544721369138547,27185.549279829054,1.7928694650923243,10.742949798806368,27217.575339099858,-0.29423099880207126,2.5479654008640544,27501.602712798853,0.6413477655015584,20.383723206912453,0.8278027221343952,78.0,76.0,83.0,293.0,376.0,2.0,1015.0,1001.0,2.0,1.0,1.0,0.5,0.1613535997797471,0.12071694715006827,2.0,1.0,1.0,0.5,0.2164043215074824,0.12018675967813773,25.0,12.0,13.0,0.48,1.8208709460699914,0.11904017004186558,3.0,1.0,2.0,0.3333333333333333,0.6194591954713036,0.11761064858326162,49.0,23.0,26.0,0.46938775510204084,,,,0.0,27059.0,27061.0,27137.0,27139.0,27174.0,27199.0,27217.0,27220.0,27496.0,27513.0
26,26,27855.206580486407,75.60650384109732,0.06144790926192021,28090.876366183445,-1.235806592857343,0.06396732699111683,28185.395983294693,1.7943373693609572,10.688529595683487,28215.878224411226,-0.3385964928430884,5.095930801564488,28511.027373698995,0.5815319519481649,17.8357578060484,0.7997558715262316,236.0,234.0,129.0,302.0,431.0,2.0,795.0,1001.0,2.0,1.0,1.0,0.5,0.27617020146513405,0.11028691292420774,2.0,1.0,1.0,0.5,0.1844345926906764,0.10884589966986,29.0,14.0,15.0,0.4827586206896552,1.734310157708735,0.107203680188579,5.0,2.0,3.0,0.4,0.6827075902988611,0.10790491928455193,27.0,15.0,12.0,0.5555555555555556,,,,0.0,27854.0,27856.0,28090.0,28092.0,28172.0,28198.0,28214.0,28219.0,28502.0,28521.0
27,27,29056.11201453213,0.34114144421782533,0.7355522622524326,29110.985597477862,-0.25620787994172955,0.49354993966427724,29185.1266580374,1.7692382077998854,10.681442069533698,29216.658635720512,-0.37342509877802077,2.5479654008640567,29487.981797432196,0.6284303570276676,20.383723206912453,0.8358166919459789,55.0,53.0,108.0,279.0,387.0,2.0,1201.0,996.0,2.0,1.0,1.0,0.5,0.3464189443589222,0.11423881860717099,2.0,1.0,1.0,0.5,0.19389095333991418,0.11423881860717099,27.0,13.0,14.0,0.48148148148148145,1.5952712735586636,0.11423881860717099,3.0,2.0,1.0,0.6666666666666666,0.6909982538074116,0.11423881860717099,38.0,26.0,12.0,0.6842105263157895,,,,0.0,29055.0,29057.0,29110.0,29112.0,29173.0,29197.0,29215.0,29218.0,29462.0,29497.0
28,28,30073.333732549523,0.4759502451243476,0.32203123792903576,30090.120698911982,-1.3028652701762449,-0.06595362283334479,30185.484780507784,1.7852355547072587,10.958028962658252,30217.150678199716,-0.3340053757938507,5.095930801727987,30492.548886308978,0.5063937436840684,34.41877523868613,0.8868062001172676,17.0,15.0,131.0,296.0,427.0,2.0,1017.0,1000.0,2.0,1.0,1.0,0.5,0.2613580739755482,0.11339633188367307,2.0,1.0,1.0,0.5,0.1550002744034552,0.11588597208209694,27.0,12.0,15.0,0.4444444444444444,1.813371954605201,0.11788536203745574,5.0,2.0,3.0,0.4,0.5170531211968584,0.11858157437524565,41.0,18.0,23.0,0.43902439024390244,,,,0.0,30072.0,30074.0,30089.0,30091.0,30173.0,30200.0,30215.0,30220.0,30475.0,30516.0
29,29,31047.27398270043,0.2083931110759595,1.9643155583012761,31131.78113923964,-0.3106194684445473,0.502217151009598,31185.50889632388,1.7429219469153183,10.402850399881654,31218.575339099858,-0.31109125965559364,2.5479654008640567,31494.424660900142,0.6432275083545307,2.5479654008640567,0.7097438255307231,88.0,81.0,89.0,281.0,370.0,7.0,973.0,1003.0,6.0,3.0,3.0,0.5,0.22372211237778497,0.10624221392669596,2.0,1.0,1.0,0.5,0.3525859697785778,0.10783355119519888,27.0,15.0,12.0,0.5555555555555556,1.4770469628999814,0.10768399899996696,3.0,2.0,1.0,0.6666666666666666,0.6672600322131238,0.10904618612030591,8.0,1.0,7.0,0.125,,,,0.0,31043.0,31050.0,31131.0,31133.0,31173.0,31198.0,31217.0,31220.0,31493.0,31501.0
30,30,31932.798697883485,1478.161348997548,-0.048405012158476396,32114.146469847783,-0.1899172211529011,2.5479654008640567,32185.801236752854,1.6833908707984522,10.768200037074466,32213.849321800284,-0.4495239572257715,5.095930801728113,32497.150678199716,0.5592419384726848,5.095930801728113,0.7399940743726043,181.0,179.0,110.0,277.0,387.0,2.0,887.0,999.0,2.0,1.0,1.0,0.5,0.24168740938143027,0.11210610628487407,2.0,1.0,1.0,0.5,0.17926467006798735,0.11133427281283088,25.0,13.0,12.0,0.52,1.7876556409274684,0.11133427281283088,13.0,4.0,9.0,0.3076923076923077,0.7144067811722441,0.11133427281283088,50.0,30.0,20.0,0.6,,,,0.0,31932.0,31934.0,32113.0,32115.0,32173.0,32198.0,32211.0,32223.0,32496.0,32500.0
31,31,33888.367263014574,11031.099232152492,0.07968434382423491,34085.382137870176,-1.9682746795910226,0.2065781624141699,34185.3393432594,1.7497152079469944,11.00277583366154,34215.8463939622,-0.2847080198124132,7.2421755517279385,34483.273982700426,0.6582012410877763,7.64389620259217,0.762139321640444,197.0,195.0,139.0,268.0,407.0,2.0,1955.0,1999.0,2.0,1.0,1.0,0.5,0.29532874125879216,0.11172459992934582,2.0,1.0,1.0,0.5,0.4119151532493243,0.1134227570132672,24.0,12.0,12.0,0.5,2.0708817736816263,0.1134227570132672,10.0,3.0,7.0,0.3,0.7162715285744226,0.1134227570132672,36.0,8.0,28.0,0.2222222222222222,,,,0.0,33887.0,33889.0,34084.0,34086.0,34173.0,34197.0,34213.0,34223.0,34479.0,34491.0
32,32,34860.41055469634,1.7257578665157634,0.23805084526261175,35114.861834423216,-0.6024222371596704,0.0021693815011022133,35185.105209645,1.7415269798898425,10.971773550232458,35216.96670909651,-0.49132193720787687,2.5479654008640567,35497.87669549929,0.6379896389717378,12.739827004320285,0.7884012311296734,255.0,253.0,104.0,287.0,391.0,2.0,972.0,998.0,2.0,1.0,1.0,0.5,0.4393681272007288,0.1134787328750252,2.0,1.0,1.0,0.5,0.1630707312741806,0.1134787328750252,29.0,14.0,15.0,0.4827586206896552,1.7176869485973945,0.1134787328750252,3.0,2.0,1.0,0.6666666666666666,0.9080316980517373,0.1134787328750252,86.0,54.0,32.0,0.627906976744186,,,,0.0,34859.0,34861.0,35114.0,35116.0,35172.0,35199.0,35215.0,35218.0,35492.0,35505.0
33,33,37052.14714057811,0.25405794172399654,0.6812119743273956,37142.150678199716,-0.2720403727692439,2.0328142042653483,37185.51928760612,1.7752088070621181,10.532860842363034,37217.575339099865,-0.44227015353451105,2.5479654008640567,37494.45203510052,0.5897416256681638,15.28779240518434,0.8124097832843064,88.0,86.0,80.0,284.0,364.0,2.0,2192.0,2003.0,2.0,1.0,1.0,0.5,0.1466506082722359,0.11527631948022006,8.0,5.0,3.0,0.625,0.1623777136935542,0.11527631948022006,24.0,11.0,13.0,0.4583333333333333,1.761829492156846,0.11527631948022006,7.0,6.0,1.0,0.8571428571428571,0.7747386582972807,0.11527631948022006,37.0,11.0,26.0,0.2972972972972973,,,,0.0,37051.0,37053.0,37139.0,37145.0,37175.0,37199.0,37212.0,37219.0,37490.0,37503.0
34,34,38064.62163973284,1.3782472930663225,0.19854484761124566,38146.575339099865,-0.17215706952747348,2.5479654008640567,38185.67165819285,1.7604675373002234,10.637484933802876,38216.753134669234,-0.41690510773924855,2.5479654008640567,38490.76449205292,0.6379776866785716,10.191861603456227,0.7954951977961527,81.0,79.0,76.0,273.0,349.0,2.0,1013.0,1001.0,2.0,1.0,1.0,0.5,0.3088733000867731,0.10145407010464319,3.0,2.0,1.0,0.6666666666666666,0.10297618062325373,0.10645479223766693,28.0,14.0,14.0,0.5,1.6466944988812435,0.10658553732793254,5.0,1.0,4.0,0.2,0.7968621591705743,0.11013367504129924,58.0,38.0,20.0,0.6551724137931034,,,,0.0,38064.0,38066.0,38145.0,38148.0,38173.0,38200.0,38216.0,38221.0,38478.0,38494.0
35,35,39062.2911094985,0.322408839480183,1.0971100285802386,39122.57533909991,-0.4577975699106117,0.8149338735888754,39185.69366064918,1.7588944152072974,10.784105785216633,39215.31591606058,-0.37362856284449497,2.5479654008640567,39499.87669549929,0.6388326620480008,12.739827004320285,0.7958949578278702,60.0,57.0,97.0,292.0,389.0,3.0,997.0,996.0,3.0,1.0,2.0,0.3333333333333333,0.1697705966330557,0.11346112065247968,3.0,2.0,1.0,0.6666666666666666,0.397943878827955,0.11368163596646277,26.0,12.0,14.0,0.46153846153846156,1.6034162942089172,0.11179562410167396,4.0,1.0,3.0,0.25,0.7676260651570334,0.11175721175955047,13.0,3.0,10.0,0.23076923076923078,,,,0.0,39061.0,39064.0,39121.0,39124.0,39174.0,39198.0,39214.0,39218.0,39497.0,39510.0
36,36,40066.18005584615,0.37505426501988615,0.597393672348455,40111.34138991937,-1.0391881870323432,0.22064214075725982,40185.26624441964,1.7862430900776833,10.676143838116044,40214.424660900135,-0.34839547037198393,2.5479654008640464,40504.45203459914,0.6499054708592235,15.28779240518434,0.8086530762506,45.0,43.0,107.0,296.0,403.0,2.0,1004.0,999.0,2.0,1.0,1.0,0.5,0.19681383966516036,0.11096954868717404,2.0,1.0,1.0,0.5,0.2092318291006961,0.11160704906162922,27.0,13.0,14.0,0.48148148148148145,1.8055362559013308,0.11151902887204657,4.0,1.0,3.0,0.25,0.7096836750346563,0.1115824291562358,70.0,49.0,21.0,0.7,,,,0.0,40065.0,40067.0,40110.0,40112.0,40172.0,40197.0,40213.0,40217.0,40478.0,40513.0
37,37,41063.42466090013,0.4762385610528467,0.4061604463911565,41148.766286035716,-0.2570675412673244,0.49560383899514965,41185.246609001435,1.774627761749155,10.638890786872857,41218.424660900135,-0.3482551650764461,2.5479654008640567,41491.972626301,0.6237749164909302,17.8357578060484,0.8125994305037606,86.0,83.0,73.0,299.0,372.0,3.0,997.0,999.0,3.0,1.0,2.0,0.3333333333333333,0.25210086439423324,0.09964079761727591,2.0,1.0,1.0,0.5,0.14354507738959493,0.10301715557308104,29.0,14.0,15.0,0.4827586206896552,1.6892981740933186,0.1342971448563997,4.0,1.0,3.0,0.25,0.7246328785965608,0.1236320763130777,47.0,19.0,28.0,0.40425531914893614,,,,0.0,41062.0,41065.0,41148.0,41150.0,41171.0,41200.0,41217.0,41221.0,41482.0,41520.0
38,38,42038.109294915295,0.3170015593222341,0.6803381406557842,42104.21698360972,-0.13746127591234453,1.848988895709532,42185.34219473522,1.7620432460674524,10.586018158586834,42227.6899232299,-0.7554744706467618,0.23026450914003688,42488.150678199716,0.6616574104355984,5.095930801728113,0.7136571498061013,66.0,64.0,126.0,262.0,388.0,2.0,975.0,1003.0,2.0,1.0,1.0,0.5,0.2907736731299906,0.11318820991901571,2.0,1.0,1.0,0.5,0.2238881333399143,0.11095989498273377,27.0,13.0,14.0,0.48148148148148145,1.858521411703721,0.11369307708338064,2.0,1.0,1.0,0.5,0.15706914961831267,0.11600456779916667,67.0,29.0,38.0,0.43283582089552236,,,,0.0,42037.0,42039.0,42103.0,42105.0,42172.0,42199.0,42227.0,42229.0,42487.0,42491.0
39,39,43024.02459776685,0.31351971818113994,0.5406246984494364,43108.69048609223,-0.48771945474038714,0.01829621915458196,43185.23324719497,1.7703915756596378,11.16819553602497,43214.39787407177,-0.34349112955530137,2.5479654008640478,43512.22487870019,0.6770137494895642,2.547939338142382,0.6960607318619636,85.0,83.0,110.0,303.0,413.0,2.0,986.0,1000.0,2.0,1.0,1.0,0.5,0.3486317268948295,0.11630417104746815,2.0,1.0,1.0,0.5,0.497637907906594,0.11692633032399956,27.0,13.0,14.0,0.48148148148148145,1.7672881469443331,0.1166158239598734,5.0,1.0,4.0,0.2,0.8167822850158475,0.11627123080782786,10.0,1.0,9.0,0.1,,,,0.0,43023.0,43025.0,43108.0,43111.0,43172.0,43198.0,43213.0,43218.0,43511.0,43521.0
40,40,44074.49434152172,1.221141112363222,-0.2835890896604199,44138.424660900135,-0.2282816414569805,1.2013769701955916,44185.702541148545,1.7252543045414486,11.58275613262471,44215.5018084287,-0.3446582693147025,5.095930801728113,44483.12330450071,0.6527694886180021,12.739827004320285,0.7992054157136922,65.0,61.0,81.0,295.0,376.0,4.0,1050.0,999.0,3.0,1.0,2.0,0.3333333333333333,0.22277339216265069,0.12034028643599805,5.0,1.0,4.0,0.2,0.3017934029806133,0.12068126788649573,28.0,14.0,14.0,0.5,1.683140077493731,0.11953000315722932,5.0,3.0,2.0,0.6,0.7958719090023132,0.11823305551824324,64.0,31.0,33.0,0.484375,,,,0.0,44072.0,44076.0,44137.0,44144.0,44172.0,44200.0,44213.0,44218.0,44476.0,44513.0
41,41,45053.424660900135,0.22708580222680394,2.5479654008640567,45094.424660900135,-0.5156576630590829,0.3352330171618258,45185.27612992152,1.7864139231456508,10.584853657575241,45216.57533911292,-0.36354001445776435,2.5479654008640567,45482.12330450071,0.6218939968015847,12.739827004320285,0.7973548187394497,41.0,39.0,127.0,271.0,398.0,2.0,979.0,1002.0,2.0,1.0,1.0,0.5,0.4474021754593227,0.1099043189507805,5.0,1.0,4.0,0.2,0.28451661063896305,0.10879262492972647,21.0,11.0,10.0,0.5238095238095238,2.00542762853944,0.10930709361555327,4.0,1.0,3.0,0.25,0.7536454478697217,0.10660513415806656,66.0,30.0,36.0,0.45454545454545453,,,,0.0,45052.0,45054.0,45093.0,45099.0,45174.0,45195.0,45216.0,45220.0,45475.0,45491.0
42,42,46067.424573764365,277.4619510477941,0.11586465567066917,46122.575339099865,-0.32344215496324913,0.5652789801169164,46185.184963041436,1.8216296104072005,10.519962327851948,46219.575339099865,-0.3390698335697533,2.547965391768969,46491.39728720114,0.5773339226947114,20.38372320691039,0.8339352584407032,53.0,51.0,102.0,290.0,392.0,2.0,1014.0,999.0,2.0,1.0,1.0,0.5,0.2748344197074905,0.11713817101583446,5.0,4.0,1.0,0.8,0.17062590691093246,0.11688814775544244,27.0,13.0,14.0,0.48148148148148145,1.722169115573072,0.11658400861815094,4.0,3.0,1.0,0.75,0.5961634212385934,0.11752550228353713,39.0,19.0,20.0,0.48717948717948717,,,,0.0,46066.0,46068.0,46119.0,46124.0,46173.0,46199.0,46217.0,46221.0,46480.0,46511.0
43,43,47062.968731031026,0.3573661866491861,1.0355174027100515,47139.575339099865,-0.2704563945969829,0.4586721917990627,47185.08217793012,1.8033942668597633,10.80308823445241,47282.61735134606,-0.9431990632592827,0.24822880457690366,47497.027373699,0.6489863312370738,17.8357578060484,0.8239095324103545,74.0,70.0,149.0,225.0,374.0,4.0,996.0,1004.0,4.0,2.0,2.0,0.5,0.21969675952407297,0.10819308639522435,3.0,2.0,1.0,0.6666666666666666,0.1441165923092267,0.10794143193517332,26.0,13.0,13.0,0.5,1.8972873453073227,0.10942395891582955,2.0,1.0,1.0,0.5,0.3348253029446978,0.11203575044190647,51.0,38.0,13.0,0.7450980392156863,,,,0.0,47061.0,47065.0,47135.0,47141.0,47172.0,47198.0,47282.0,47284.0,47493.0,47509.0
44,44,47842.4641836202,1.4502229430730034,-0.2783146960983328,48147.835933549846,-1.6710267382804995,0.0868458516565382,48185.28882088298,1.7970476946820608,11.105567723407924,48213.424660900135,-0.32935861547088796,2.5479654008640567,48494.30135639943,0.7211513373974574,10.191861603456227,0.762450148044379,307.0,303.0,71.0,283.0,354.0,4.0,779.0,998.0,3.0,1.0,2.0,0.3333333333333333,0.50324340188853,0.12421009087161275,2.0,1.0,1.0,0.5,0.145060630877993,0.10177664321099683,26.0,13.0,13.0,0.5,1.8271754459451395,0.10150552775608537,6.0,1.0,5.0,0.16666666666666666,0.710248428082205,0.09591576642724016,31.0,19.0,12.0,0.6129032258064516,,,,0.0,47840.0,47844.0,48147.0,48149.0,48172.0,48198.0,48212.0,48218.0,48492.0,48501.0
45,45,48889.33627657319,0.38620964744619246,0.016625808108630513,49101.8134966838,-0.20883609911010137,0.01861894958811361,49185.357132120414,1.7575155582212676,10.224592291208296,49221.57533948837,-0.3424883251159466,2.54796449995557,49496.409651553884,0.6218667488414261,2.5479654008636023,0.7064187446620575,214.0,211.0,122.0,285.0,407.0,3.0,1047.0,997.0,2.0,1.0,1.0,0.5,0.3445214744084968,0.11306265697983214,2.0,1.0,1.0,0.5,0.17068820423736591,0.11306265697983214,26.0,12.0,14.0,0.46153846153846156,1.8049644672229344,0.11306265697983214,2.0,1.0,1.0,0.5,0.3436773767564839,0.11306265697983214,13.0,1.0,12.0,0.07692307692307693,,,,0.0,48887.0,48890.0,49101.0,49103.0,49174.0,49198.0,49221.0,49223.0,49495.0,49508.0
46,46,49921.1789106146,1.4752903403725592,0.10356253129324577,50133.187120634575,-0.33089169350412223,0.6669618245732328,50185.58849428427,1.793418892783029,10.953393239051302,50217.575339099865,-0.40659696607613627,2.5479654008640567,50479.12330450071,0.6483827219716489,12.739827004320285,0.7789166863339912,213.0,210.0,88.0,271.0,359.0,3.0,1032.0,1004.0,2.0,1.0,1.0,0.5,0.28950404463195023,0.11880836426609862,2.0,1.0,1.0,0.5,0.38554597852504036,0.12016426581540345,27.0,14.0,13.0,0.5185185185185185,1.6707371520074914,0.11668100490648757,3.0,1.0,2.0,0.3333333333333333,0.7488426729681604,0.11494526542583221,81.0,27.0,54.0,0.3333333333333333,,,,0.0,49919.0,49922.0,50132.0,50134.0,50172.0,50199.0,50217.0,50220.0,50472.0,50491.0
47,47,50897.203898437896,0.34296897348346395,0.46728373481999075,51116.575339099865,-1.0070923364010544,0.2878734117795816,51185.69390451735,1.7581253014589258,10.645731399591492,51217.150678199716,-0.3469128291801736,5.095930801728113,51483.578410100155,0.6663850049043799,2.5479654008640567,0.7261100219997476,220.0,218.0,104.0,265.0,369.0,2.0,976.0,1000.0,2.0,1.0,1.0,0.5,0.34264087379999913,0.10886797114332261,2.0,1.0,1.0,0.5,0.37533689066979914,0.11715506381180227,24.0,11.0,13.0,0.4583333333333333,1.696877964811427,0.12204619186914667,4.0,1.0,3.0,0.25,0.6883621088302019,0.1187394432818928,7.0,6.0,1.0,0.8571428571428571,,,,0.0,50896.0,50898.0,51116.0,51118.0,51175.0,51199.0,51216.0,51220.0,51478.0,51485.0
48,48,51893.42465982112,2.244076770903093,0.20260974803614193,52119.870758004145,-0.6275605793831733,0.09758131457541369,52185.203230406434,1.7734759758169212,10.565501429263666,52217.150678199716,-0.2783702407593688,5.095930801728113,52471.94180971447,0.5988240025317786,2.5479654008640567,0.7071802033411373,227.0,225.0,103.0,256.0,359.0,2.0,996.0,1001.0,2.0,1.0,1.0,0.5,0.33694878219753766,0.12163083585726829,2.0,1.0,1.0,0.5,0.3162572002939922,0.11956359520431008,27.0,14.0,13.0,0.5185185185185185,1.7754541282937577,0.11844184288505297,6.0,1.0,5.0,0.16666666666666666,0.5133758578642366,0.11639753008319438,7.0,1.0,6.0,0.14285714285714285,,,,0.0,51892.0,51894.0,52119.0,52121.0,52172.0,52198.0,52216.0,52222.0,52471.0,52478.0
49,49,52835.76400075892,0.22580406932818678,2.5479654008640553,53111.256536480985,-8.519440873222933,0.09204313221646218,53185.60271279886,1.7865972487189554,10.98780997820863,53217.39798405618,-1.0250161448194344,0.31633038281904535,53490.67186672454,0.5962627833598424,30.57558481036868,0.8591048009394128,271.0,269.0,112.0,299.0,411.0,2.0,943.0,1001.0,2.0,1.0,1.0,0.5,0.4277116902089814,0.11463723966279343,2.0,1.0,1.0,0.5,0.2245750368922159,0.1250439070889677,26.0,15.0,11.0,0.5769230769230769,1.7959697298371387,0.12406384844960623,2.0,1.0,1.0,0.5,0.7581928811618788,0.1194109189667735,69.0,43.0,26.0,0.6231884057971014,,,,0.0,52835.0,52837.0,53106.0,53112.0,53171.0,53197.0,53216.0,53218.0,53474.0,53517.0
50,50,54101.4170620398,1.9541852095897057,0.20978334702834558,54135.85980296941,-0.23745735741520613,0.6711389696150275,54185.219964709395,1.76944956248179,10.400946463502903,54220.575339099865,-0.2757506111383828,2.5479654008640567,54503.892628311296,0.6397326611323149,2.5479654008640567,0.7060797925359589,35.0,33.0,87.0,283.0,370.0,2.0,1265.0,994.0,2.0,1.0,1.0,0.5,0.1876581949797687,0.12046921363981976,2.0,1.0,1.0,0.5,0.31991714393262416,0.121141280493491,29.0,14.0,15.0,0.4827586206896552,1.6041098147024981,0.1218374868949464,2.0,1.0,1.0,0.5,0.5429254854975046,0.11870048886962381,5.0,4.0,1.0,0.8,,,,0.0,54100.0,54102.0,54135.0,54137.0,54172.0,54198.0,54220.0,54222.0,54500.0,54505.0
51,51,55054.92762880448,0.3359477983707075,0.4293415634487064,55107.72082287212,-0.49041925165944766,0.23222525678457775,55185.20216818771,1.8106071143475462,10.952748849448785,55219.575339099865,-0.39522596929962855,2.5479654008640567,55495.05474739799,0.5261746069048626,35.67151561209678,0.869734629954256,53.0,51.0,115.0,293.0,408.0,2.0,954.0,1004.0,2.0,1.0,1.0,0.5,0.44370381618386423,0.11169402998467298,2.0,1.0,1.0,0.5,0.19754060069425278,0.11169402998467298,28.0,13.0,15.0,0.4642857142857143,1.8321712009396018,0.11169402998467298,3.0,1.0,2.0,0.3333333333333333,0.569746432455309,0.11169402998467298,72.0,51.0,21.0,0.7083333333333334,,,,0.0,55054.0,55056.0,55107.0,55109.0,55172.0,55200.0,55219.0,55222.0,55466.0,55515.0
52,52,57015.6301146511,0.9599372145302686,0.26443977467516977,57128.58073830217,-0.8378167190688977,0.27352798725361843,57185.44183625854,1.772229824775949,10.718009531755103,57215.575339099865,-0.4107807096232501,2.547965400863892,57509.726017299574,0.6255209401805878,7.643896202592166,0.748455106220857,113.0,111.0,89.0,303.0,392.0,2.0,1961.0,1996.0,2.0,1.0,1.0,0.5,0.3630023270435895,0.11748503615389282,2.0,1.0,1.0,0.5,0.1482147313122959,0.11658273793218826,27.0,13.0,14.0,0.48148148148148145,1.7497377822847753,0.11383929581419228,2.0,1.0,1.0,0.5,0.810902016029512,0.11225135512852244,16.0,2.0,14.0,0.125,,,,0.0,57015.0,57017.0,57128.0,57130.0,57174.0,57198.0,57215.0,57217.0,57508.0,57520.0
53,53,58059.21896151952,0.36468119004812,0.37398534935171346,58128.97644491944,-0.25146407735921794,-0.06316336145332575,58185.710415843365,1.753013422633167,10.487250043354939,58218.575339099865,-0.36608445232181464,2.547965400664039,58480.424660900135,0.6786644556338446,2.547965400748637,0.6985968411273143,70.0,68.0,94.0,263.0,357.0,2.0,1043.0,1001.0,2.0,1.0,1.0,0.5,0.3015934630901812,0.1052524063968459,2.0,1.0,1.0,0.5,0.2486636092451361,0.10618344966351909,28.0,14.0,14.0,0.5,1.7206881473027844,0.1070253584349781,4.0,1.0,3.0,0.25,0.5486742759390335,0.10849774159734757,6.0,1.0,5.0,0.16666666666666666,,,,0.0,58058.0,58060.0,58128.0,58130.0,58174.0,58199.0,58218.0,58222.0,58479.0,58485.0
54,54,59024.408246301406,1.483232444306444,0.23495501200752225,59148.57548875745,-1.3494474890819907,0.23311162859138723,59185.753390998645,1.7889988087270738,11.28148775778558,59214.25452147666,-0.299511575246904,5.095930797356165,59491.013908365065,0.627206404937092,30.57558481034701,0.8772029904946514,125.0,123.0,69.0,297.0,366.0,2.0,965.0,1006.0,2.0,1.0,1.0,0.5,0.33907794998355834,0.10917206152711607,2.0,1.0,1.0,0.5,0.1721978408212339,0.11435515917473461,29.0,15.0,14.0,0.5172413793103449,1.8206350574626935,0.11641416655181193,6.0,3.0,3.0,0.5,0.6924424428919607,0.10901290687867746,52.0,26.0,26.0,0.5,,,,0.0,59023.0,59025.0,59148.0,59150.0,59172.0,59200.0,59211.0,59217.0,59483.0,59514.0
55,55,60045.83406553151,0.4209832796909728,0.5166550748063121,60106.63054421048,-0.754054112788971,0.27079281067556243,60185.41872817059,1.7861643166958576,10.841185338057024,60218.150678199716,-0.30286647831570035,4.752953042652617,60490.538668175206,0.5125080505466125,37.269035098508226,0.8782078653890177,61.0,59.0,117.0,285.0,402.0,2.0,1022.0,996.0,2.0,1.0,1.0,0.5,0.3296689333435153,0.11018267298079719,2.0,1.0,1.0,0.5,0.22983420752765746,0.11018267298079719,31.0,15.0,16.0,0.4838709677419355,1.7644880950161759,0.11018267298079719,6.0,1.0,5.0,0.16666666666666666,0.5563730642892911,0.11018267298079719,73.0,41.0,32.0,0.5616438356164384,,,,0.0,60045.0,60047.0,60106.0,60108.0,60173.0,60198.0,60217.0,60223.0,60473.0,60508.0
56,56,60831.39289390571,1.5672479695092534,0.20904228477332273,61151.67852193902,-1.253230994928574,0.19314387199041375,61185.478900063914,1.7410883158629826,10.504233550597652,61215.424660900135,-0.47593249031361406,2.5479654008640567,61492.30135651806,0.613080714447808,10.191861603456227,0.7718169777247759,321.0,319.0,68.0,287.0,355.0,2.0,785.0,999.0,2.0,1.0,1.0,0.5,0.3833115243105171,0.10712821934208876,2.0,1.0,1.0,0.5,0.13624924839115574,0.11489324620610838,26.0,13.0,13.0,0.5,2.007574268436356,0.11568496313287695,5.0,1.0,4.0,0.2,0.9102629139167474,0.11832117754927368,44.0,30.0,14.0,0.6818181818181818,,,,0.0,60830.0,60832.0,61151.0,61153.0,61172.0,61198.0,61214.0,61219.0,61490.0,61506.0
57,57,62051.200523892425,0.2587924286778736,2.5479654008640145,62131.57637592843,-2.4511580880116868,0.1980380905568132,62184.972626301,1.7852062038861563,10.880222072354758,62212.32452663134,-0.6235166388104308,0.5063803815409805,62473.849321800284,0.6610142448162928,5.095930801728113,0.710841770003565,81.0,79.0,82.0,262.0,344.0,2.0,1220.0,997.0,2.0,1.0,1.0,0.5,0.35907138912278547,0.11785197611160413,2.0,1.0,1.0,0.5,0.22054527489172548,0.11785197611160413,29.0,14.0,15.0,0.4827586206896552,1.701049377442307,0.11785197611160413,2.0,1.0,1.0,0.5,1.0331942161018919,0.11785197611160413,40.0,7.0,33.0,0.175,,,,0.0,62050.0,62052.0,62131.0,62133.0,62175.0,62200.0,62211.0,62213.0,62471.0,62475.0
58,58,62997.36370228968,0.3594109178121946,0.4891371782737655,63095.59143141267,-2.427281000894544,0.20423247268389488,63185.34260094478,1.78839080684276,10.930561684429733,63215.49164699682,-0.32498489527442015,5.059056913541977,63480.39530402478,0.710301034434329,5.095930801728113,0.7422878684373889,99.0,96.0,125.0,262.0,387.0,3.0,946.0,1004.0,3.0,1.0,2.0,0.3333333333333333,0.3951157448884622,0.10994164907971501,2.0,1.0,1.0,0.5,0.36612301232790057,0.10994164907971501,26.0,13.0,13.0,0.5,1.7377021139826647,0.10994164907971501,8.0,3.0,5.0,0.375,0.4681924952593066,0.10994164907971501,11.0,9.0,2.0,0.8181818181818182,,,,0.0,62996.0,62999.0,63095.0,63097.0,63172.0,63198.0,63213.0,63220.0,63471.0,63482.0
59,59,64033.060048909225,0.2905180931034557,0.7443988582194789,64129.844665383316,-2.2774568556523276,-0.07876664096106985,64185.27868000995,1.776432762462076,10.980213754051512,64217.150678199716,-0.3086442624786462,4.9581635699913456,64472.57533910001,0.6651182170988404,2.547965400864056,0.7046469109097708,97.0,95.0,91.0,254.0,345.0,2.0,1036.0,1000.0,2.0,1.0,1.0,0.5,0.4566316684441021,0.11871062370955654,2.0,1.0,1.0,0.5,0.30428345702369963,0.11983894817784503,26.0,12.0,14.0,0.46153846153846156,1.9259216807768174,0.1190166350543021,11.0,5.0,6.0,0.45454545454545453,0.5550689823910988,0.12162532510632482,7.0,6.0,1.0,0.8571428571428571,,,,0.0,64032.0,64034.0,64129.0,64131.0,64173.0,64198.0,64213.0,64220.0,64467.0,64474.0
60,60,66047.57533909987,0.23608557599788949,2.5479654008551047,66141.5962956384,-1.12115485766842,0.22869893947850206,66185.58107084657,1.7930032427576166,10.630579293393664,66218.15067819973,-0.318828658823915,5.095930801728113,66483.27398270041,0.6253701413350881,7.64389620259217,0.7549327615644952,96.0,92.0,80.0,267.0,347.0,4.0,2015.0,1996.0,4.0,3.0,1.0,0.75,0.32513807421106633,0.11056268312235173,2.0,1.0,1.0,0.5,0.2560273210865262,0.1097434264165028,25.0,14.0,11.0,0.56,1.8150438397621143,0.11394039934027493,10.0,4.0,6.0,0.4,0.5897623354134511,0.11318340519563322,31.0,4.0,27.0,0.12903225806451613,,,,0.0,66045.0,66049.0,66141.0,66143.0,66173.0,66197.0,66214.0,66221.0,66479.0,66488.0
61,61,67035.06357815384,0.4138119402389209,0.6638385719325082,67152.57569256602,-0.1576805606446391,1.3511932135643723,67185.76150859223,1.8112782093822244,11.247953195687154,67219.40883209706,-0.4542240241356364,0.5923195106635741,67502.87669549929,0.6806422188062728,12.739827004320285,0.7852379716612692,118.0,116.0,69.0,289.0,358.0,2.0,987.0,1001.0,2.0,1.0,1.0,0.5,0.5005756021714036,0.11682136740516627,2.0,1.0,1.0,0.5,0.18113625089513735,0.11682136740516627,30.0,15.0,15.0,0.5,1.6360437645793025,0.11682136740516627,3.0,1.0,2.0,0.3333333333333333,0.5475654810669106,0.11682136740516627,80.0,58.0,22.0,0.725,,,,0.0,67034.0,67036.0,67152.0,67154.0,67173.0,67199.0,67218.0,67221.0,67475.0,67510.0
62,62,67872.3371469486,15.059661878087233,0.11905398871536559,68093.5761448567,-0.7086631984913492,0.35189533447905086,68185.84652485666,1.732325411353366,10.64485793011599,68212.42466090013,-0.37763312151164213,2.5479653955447716,68496.30183372083,0.653027646047061,10.191861603456227,0.7576781714166104,222.0,219.0,123.0,287.0,410.0,3.0,837.0,1003.0,2.0,1.0,1.0,0.5,0.22944338810448023,0.11159755642728293,3.0,2.0,1.0,0.6666666666666666,0.2938816485627912,0.11488851701365764,25.0,13.0,12.0,0.52,1.8100469913369412,0.11619947270081378,4.0,1.0,3.0,0.25,0.9724364236777987,0.11606511937146693,56.0,25.0,31.0,0.44642857142857145,,,,0.0,67870.0,67873.0,68092.0,68095.0,68173.0,68198.0,68211.0,68215.0,68477.0,68502.0
63,63,69052.35487566947,-1170.8139595683353,0.08426358742310631,69073.41801479571,-1.6582618289930116,0.22909315455564544,69185.6074025073,1.7511371901348827,11.128160131813258,69217.72601729959,-0.25787907883946004,6.976572704966778,69489.54796540085,0.6686750479442098,15.28779240518434,0.8127484381262503,21.0,17.0,150.0,271.0,421.0,4.0,1181.0,1000.0,2.0,1.0,1.0,0.5,0.08752528269499998,0.11672107323215204,2.0,1.0,1.0,0.5,0.3300563087666609,0.11110473370322721,29.0,15.0,14.0,0.5172413793103449,1.6299535372056708,0.1013686187853057,9.0,5.0,4.0,0.5555555555555556,0.5451412379267269,0.10616313666499756,52.0,22.0,30.0,0.4230769230769231,,,,0.0,69051.0,69055.0,69072.0,69074.0,69171.0,69200.0,69213.0,69222.0,69468.0,69493.0
64,64,70040.84932180027,0.2070822584277104,5.095930801728113,70143.85736916431,-0.3235323408645762,0.47298240617973625,70185.7073967718,1.7889471311678633,11.016810351012834,70216.39433216085,-0.32853185813398506,4.768525812343129,70480.57533909987,0.744404006101418,2.5479654008640567,0.7021418375298871,106.0,101.0,78.0,261.0,339.0,5.0,987.0,1001.0,5.0,4.0,1.0,0.8,0.20862548164945244,0.11859097218314288,2.0,1.0,1.0,0.5,0.2148122112472102,0.1172173265159043,30.0,15.0,15.0,0.5,1.617094254829685,0.11641521789265057,8.0,3.0,5.0,0.375,0.6032202163788738,0.11594369838322716,8.0,7.0,1.0,0.875,,,,0.0,70037.0,70042.0,70143.0,70145.0,70171.0,70201.0,70214.0,70221.0,70474.0,70482.0
65,65,71059.4246608998,0.47870670897011336,0.38698120088342824,71106.35474318436,-0.7184448815159644,0.2665673402420334,71185.57210550732,1.7609439374144331,10.604147798611852,71216.15067819973,-0.32141053544291354,5.095930801727779,71476.27398270041,0.6225447329588498,7.64389620259217,0.745606858236084,47.0,44.0,114.0,260.0,374.0,3.0,1019.0,1000.0,3.0,1.0,2.0,0.3333333333333333,0.29162543149379927,0.13803310620915912,2.0,1.0,1.0,0.5,0.13722284605016388,0.14537324682651717,25.0,12.0,13.0,0.48,1.669960249477219,0.11069253052607207,10.0,6.0,4.0,0.6,0.5046554149716691,0.11115924322091872,40.0,7.0,33.0,0.175,,,,0.0,71058.0,71061.0,71105.0,71107.0,71174.0,71198.0,71212.0,71219.0,71472.0,71479.0
66,66,71989.87867347208,0.6305264315786946,0.09854151650324106,72152.05318781304,-0.3444182929327957,0.7482228697932922,72185.77588668022,1.7294070624091091,10.630228546489688,72219.72601729959,-0.2962033103060223,5.736681647266497,72477.84932180027,0.5928171549436698,5.095930792622061,0.7182116995563731,162.0,159.0,73.0,255.0,328.0,3.0,931.0,1000.0,2.0,1.0,1.0,0.5,0.32280502103511377,0.11480814611195266,2.0,1.0,1.0,0.5,0.21185760320644254,0.11480814611195266,27.0,13.0,14.0,0.48148148148148145,1.5666847722637418,0.11480814611195266,13.0,9.0,4.0,0.6923076923076923,0.3689885675951092,0.11480814611195266,6.0,5.0,1.0,0.8333333333333334,,,,0.0,71989.0,71992.0,72151.0,72153.0,72173.0,72198.0,72211.0,72224.0,72475.0,72479.0
67,67,72813.78364106898,0.9311980088483112,-0.13612888947889493,73144.57776204916,-1.1135269454754955,0.26282087091922424,73185.40131328715,1.7688310811619277,10.935458347288302,73222.15067819973,-0.29101803237645374,5.095930801728113,73502.72601729959,0.6429560190034942,7.64389620259217,0.7593683908067755,333.0,328.0,81.0,288.0,369.0,5.0,824.0,1002.0,2.0,1.0,1.0,0.5,0.3593989848952319,0.11182823703235514,2.0,1.0,1.0,0.5,0.31614355230035035,0.1109536182642343,29.0,14.0,15.0,0.4827586206896552,1.762645137975423,0.1109536182642343,4.0,1.0,3.0,0.25,0.341217507249715,0.1109536182642343,44.0,18.0,26.0,0.4090909090909091,,,,0.0,72811.0,72816.0,73144.0,73146.0,73174.0,73200.0,73221.0,73225.0,73501.0,73513.0
68,68,74059.62668776637,0.8546957791156613,0.26232068435437356,74123.0794906685,-0.2941568475711345,0.56680886414159,74185.5810109351,1.7845874248363929,10.64627010516242,74216.72601729959,-0.3001809711162239,5.324375904877851,74483.27398270041,0.6791340407412603,7.64389620259217,0.7665739038991911,63.0,61.0,100.0,263.0,363.0,2.0,1246.0,998.0,2.0,1.0,1.0,0.5,0.3013947623516481,0.1071978616365928,2.0,1.0,1.0,0.5,0.20043249685802178,0.10894763244568118,28.0,15.0,13.0,0.5357142857142857,1.758304035833382,0.10682896965689011,7.0,2.0,5.0,0.2857142857142857,0.47109863076635083,0.11810740692642671,39.0,16.0,23.0,0.41025641025641024,,,,0.0,74059.0,74061.0,74122.0,74124.0,74172.0,74199.0,74215.0,74222.0,74478.0,74485.0
69,69,75047.73906793333,0.3117943621632507,0.5240000235569474,75095.03879784366,-0.2495929279350138,0.6131991788027473,75185.73079954319,1.7050520699325777,11.46063095861052,75214.84932180027,-0.4369249485059832,5.095924238403525,75496.17805189872,0.5812994575393696,22.93168860777651,0.8547261022547817,47.0,45.0,125.0,296.0,421.0,2.0,988.0,1000.0,2.0,1.0,1.0,0.5,0.18831460499705327,0.10802193897086973,2.0,1.0,1.0,0.5,0.26273455438925175,0.10767172799716693,29.0,15.0,14.0,0.5172413793103449,1.514387523839988,0.10795473618399791,7.0,3.0,4.0,0.42857142857142855,0.7272047222152219,0.10790039950107826,55.0,29.0,26.0,0.5272727272727272,,,,0.0,75047.0,75049.0,75094.0,75096.0,75172.0,75200.0,75212.0,75219.0,75491.0,75515.0
70,70,75920.9549344264,0.2801302238062288,0.12061846148618231,76143.82634626747,-0.2568035968919126,0.6044450703170036,76185.02231145887,1.77219958203332,10.358721234894752,76215.85473609439,-0.3808732086592565,2.5479654008640567,76489.08651486432,0.6615312236136843,10.191861603456227,0.7725715175707614,223.0,221.0,74.0,277.0,351.0,2.0,873.0,998.0,2.0,1.0,1.0,0.5,0.24279743473224216,0.10948920391777878,2.0,1.0,1.0,0.5,0.2717699692327829,0.10987929828031376,24.0,12.0,12.0,0.5,2.0002582107826,0.10987929828031376,2.0,1.0,1.0,0.5,0.7584695503618398,0.10987929828031376,53.0,19.0,34.0,0.3584905660377358,,,,0.0,75920.0,75922.0,76143.0,76145.0,76173.0,76197.0,76215.0,76217.0,76476.0,76494.0
71,71,77026.86478594579,0.4379497333226688,0.131824088982154,77090.6149594235,-0.7137690288673454,0.2670456300604205,77185.60159749186,1.768797582235063,11.035674466092726,77215.9109499623,-0.31600015088144007,5.095930801709833,77492.69864360057,0.6730979009748207,10.191861603456227,0.7731321388453597,64.0,62.0,130.0,292.0,422.0,2.0,1106.0,1001.0,2.0,1.0,1.0,0.5,0.1308338550848327,0.11470954574552995,2.0,1.0,1.0,0.5,0.33476510103570695,0.11613896262086282,23.0,12.0,11.0,0.5217391304347826,1.7868055577552204,0.11873064059313362,6.0,2.0,4.0,0.3333333333333333,0.7891817243326332,0.11887827134012167,90.0,46.0,44.0,0.5111111111111111,,,,0.0,77026.0,77028.0,77090.0,77092.0,77174.0,77197.0,77214.0,77220.0,77487.0,77512.0
72,72,78020.74552559633,5.969412917360792,-0.10444384910315586,78112.97419154167,-0.31335949092457965,-0.04056065232097089,78185.26114636303,1.792294765136936,10.506832232825904,78220.57533909987,-0.3017594313767893,2.5479654008640567,78490.69864360022,0.6802379739015182,10.191861603456227,0.7687353398902771,92.0,89.0,110.0,271.0,381.0,3.0,994.0,998.0,2.0,1.0,1.0,0.5,0.3682500726640664,0.11124799197132317,2.0,1.0,1.0,0.5,0.3839829332929944,0.11322394075478283,28.0,13.0,15.0,0.4642857142857143,1.6775934250154199,0.11382303955271574,6.0,5.0,1.0,0.8333333333333334,0.4506544370278437,0.11575054172473623,75.0,40.0,35.0,0.5333333333333333,,,,0.0,78020.0,78023.0,78112.0,78114.0,78172.0,78200.0,78216.0,78222.0,78484.0,78493.0
73,73,79064.8935540974,0.39747757148955054,0.1470379427125589,79110.58786071812,-19679.686075952693,0.08730835444194415,79185.34718954889,1.7635791243751544,10.454122944166336,79216.23397591221,-0.3019115776172737,7.643896202567336,79493.48541179375,0.47339741149952375,32.408529422783005,0.8791391333930055,46.0,44.0,112.0,294.0,406.0,2.0,1044.0,1002.0,2.0,1.0,1.0,0.5,0.22555791504958156,0.11609576893882298,2.0,1.0,1.0,0.5,0.31976332655254047,0.11291691107522694,25.0,12.0,13.0,0.48,1.7088965620193866,0.12160112980946018,12.0,6.0,6.0,0.5,0.49345009910537896,0.11143322958174143,46.0,18.0,28.0,0.391304347826087,,,,0.0,79064.0,79066.0,79110.0,79112.0,79173.0,79197.0,79214.0,79222.0,79478.0,79516.0
74,74,80059.42466026115,0.614105046020482,0.37601890407315997,80103.38302191877,-0.7281955753566268,0.3319259964343648,80185.3306378004,1.7644122503347166,10.661804225167229,80216.57533910457,-0.3891603698693591,2.5479654008640544,80465.84932180027,0.5272165570599763,5.0959308017281115,0.7176608998507495,44.0,41.0,116.0,250.0,366.0,3.0,994.0,999.0,3.0,1.0,2.0,0.3333333333333333,0.42840489061854303,0.11404632435009894,2.0,1.0,1.0,0.5,0.3786086142118219,0.11404632435009894,23.0,11.0,12.0,0.4782608695652174,1.9049964006754212,0.1170111423101114,2.0,1.0,1.0,0.5,0.6512339268015538,0.11404632435009894,47.0,3.0,44.0,0.06382978723404255,,,,0.0,80058.0,80061.0,80102.0,80104.0,80174.0,80197.0,80216.0,80218.0,80463.0,80468.0
75,75,80938.41041411899,1.7398994048858432,0.22222834782505552,81125.23641546934,-0.35824410686282826,0.5085558333802096,81185.45875464239,1.7640208764082834,11.073724269477452,81217.42466090013,-0.35998648976225656,2.5479654008640567,81491.59183380069,0.5499051898997697,35.6715156120968,0.8821744779072087,187.0,185.0,97.0,300.0,397.0,2.0,879.0,997.0,2.0,1.0,1.0,0.5,0.4076451407281815,0.10583698755709156,2.0,1.0,1.0,0.5,0.25180120017540836,0.10596929848383801,27.0,13.0,14.0,0.48148148148148145,1.8638679674744683,0.10596929848383801,5.0,1.0,4.0,0.2,0.7601289954839515,0.10596929848383801,60.0,27.0,33.0,0.45,,,,0.0,80937.0,80939.0,81124.0,81126.0,81173.0,81199.0,81216.0,81221.0,81479.0,81521.0
76,76,82037.17911246954,141.81206111753565,0.0517348216204275,82142.19368561979,-3.820817635307929,0.08230550372041875,82186.60271279886,1.7833479472520468,10.956806631637875,82216.57533909987,-0.3748575317542232,2.5479654008640567,82492.57534140855,0.7106263358776649,2.5479654008640567,0.7185180683131543,104.0,102.0,78.0,276.0,354.0,2.0,1099.0,1008.0,2.0,1.0,1.0,0.5,0.3959320661890219,0.11345410680202694,2.0,1.0,1.0,0.5,0.09732104479178524,0.1053498542239132,27.0,15.0,12.0,0.5555555555555556,1.652156246837746,0.12415554221534277,2.0,1.0,1.0,0.5,0.7659967036680233,0.11484139511433113,20.0,19.0,1.0,0.95,,,,0.0,82036.0,82038.0,82140.0,82143.0,82173.0,82198.0,82216.0,82218.0,82474.0,82494.0
77,77,83038.13116408745,0.2505237968935804,0.5820268787650626,83111.42466090013,-0.15206842476888133,2.3651331332512817,83185.54244134229,1.7632958249031743,10.903754346197829,83217.15067819973,-0.32458053542330445,5.095930801728113,83485.27104636646,0.6701596334169128,5.095930801728113,0.7382549442555524,73.0,71.0,110.0,267.0,377.0,2.0,1001.0,992.0,2.0,1.0,1.0,0.5,0.32400896381237754,0.11279941196756366,2.0,1.0,1.0,0.5,0.2000883375135831,0.11125814198268336,27.0,14.0,13.0,0.5185185185185185,1.5794735061575396,0.11373038222763862,8.0,3.0,5.0,0.375,0.5929524891863598,0.1139213480606165,11.0,9.0,2.0,0.8181818181818182,,,,0.0,83037.0,83039.0,83110.0,83112.0,83173.0,83199.0,83215.0,83220.0,83476.0,83487.0
78,78,83976.4246600407,0.8902427661761345,0.2906132586567337,84133.89967153396,-0.29747511600867405,0.6900796500723895,84185.77034196697,1.7453647820770208,10.527505083061744,84218.38680882947,-0.30757876443403326,7.616837348052188,84494.8766958792,0.623045569806689,12.739827004320263,0.8022928365907986,158.0,156.0,91.0,280.0,371.0,2.0,938.0,1003.0,2.0,1.0,1.0,0.5,0.22279148477585023,0.11464979624764346,2.0,1.0,1.0,0.5,0.21002593857697852,0.1187976262248741,27.0,14.0,13.0,0.5185185185185185,1.5239657151676353,0.11032538903607261,13.0,7.0,6.0,0.5384615384615384,0.6496053785460902,0.1119396168065559,59.0,30.0,29.0,0.5084745762711864,,,,0.0,83975.0,83977.0,84133.0,84135.0,84173.0,84199.0,84211.0,84224.0,84492.0,84504.0
79,79,86053.11825359426,0.27078439928772663,0.7730435037483377,86127.04687854895,-0.26484537691229654,-0.08111707053557847,86185.75339099858,1.789638532251371,10.55086109114821,86220.57533909987,-0.28999968724080327,2.5479654008640567,86489.39728441686,0.6368476886775103,20.383723206912453,0.8443574315727979,74.0,72.0,97.0,290.0,387.0,2.0,2077.0,2005.0,2.0,1.0,1.0,0.5,0.2540694178329781,0.11477911401226236,2.0,1.0,1.0,0.5,0.15268277147372022,0.1119639554664598,29.0,15.0,14.0,0.5172413793103449,1.5582389122612381,0.11050846569632233,3.0,1.0,2.0,0.3333333333333333,0.3729654623369434,0.111066218248002,71.0,39.0,32.0,0.5492957746478874,,,,0.0,86052.0,86054.0,86126.0,86129.0,86171.0,86200.0,86220.0,86223.0,86478.0,86513.0
80,80,87058.65717793662,0.8649154013798189,0.24872743325359903,87139.82957257557,-0.6221625039405998,-0.12429853681398731,87185.1545728055,1.7703792619302174,11.428324276954463,87217.42466090013,-0.41261837817147007,2.5479654008640567,87492.57533909987,0.7185223548925899,2.5479654008640567,0.7007934076285802,80.0,78.0,80.0,276.0,356.0,2.0,1006.0,995.0,2.0,1.0,1.0,0.5,0.3376031398881859,0.11436819304990802,2.0,1.0,1.0,0.5,0.38544020965333126,0.1144669509921775,29.0,14.0,15.0,0.4827586206896552,2.0562194014837534,0.11447415343738623,2.0,1.0,1.0,0.5,0.8507188252728906,0.11447415343738623,3.0,2.0,1.0,0.6666666666666666,,,,0.0,87058.0,87060.0,87138.0,87141.0,87171.0,87200.0,87216.0,87218.0,87491.0,87494.0
81,81,88034.0758043347,0.2581703542019752,1.2864751928444789,88085.41623353484,-0.7472551746462986,0.28281475077825413,88185.22304576676,1.7787732398208174,10.82350037096193,88311.24213482207,-0.3792078280903324,0.3706471286130764,88466.42466090013,0.5998570044852377,2.5479654008640567,0.6681395142171087,51.0,49.0,228.0,155.0,383.0,2.0,975.0,1001.0,2.0,1.0,1.0,0.5,0.4367032814770093,0.12113285516311156,2.0,1.0,1.0,0.5,0.2327833051459995,0.11889133346788114,27.0,13.0,14.0,0.48148148148148145,1.8687169554888556,0.1164406004295306,2.0,1.0,1.0,0.5,0.41912826560080724,0.10966768986542245,2.0,1.0,1.0,0.5,,,,0.0,88033.0,88035.0,88084.0,88086.0,88172.0,88199.0,88310.0,88312.0,88465.0,88467.0
82,82,89030.15749775761,0.39955764520645476,0.012742225116332218,89108.23565304797,-0.2703183318414313,0.6619751128013909,89185.242869128,1.7863948765879787,10.881216345049216,89217.57534483953,-0.38329078968851577,2.5416315504332028,89486.66620905079,0.7054528866883323,10.191861603456204,0.7626892417551229,78.0,76.0,112.0,282.0,394.0,2.0,996.0,1000.0,2.0,1.0,1.0,0.5,0.4732557054548474,0.11525031829944184,3.0,1.0,2.0,0.3333333333333333,0.2365738326941163,0.11550757925805623,26.0,12.0,14.0,0.46153846153846156,1.6677807982167518,0.11486133634689587,3.0,2.0,1.0,0.6666666666666666,0.6728938496044022,0.11494530361428065,72.0,22.0,50.0,0.3055555555555556,,,,0.0,89029.0,89031.0,89107.0,89110.0,89173.0,89199.0,89216.0,89219.0,89481.0,89501.0
83,83,90075.1979769233,3.5822956007561904,-0.08573035656235017,90154.30352697361,-0.4454851969829936,0.30065382147374875,90185.93580661301,1.7267822742645849,10.60663743725049,90215.42360173052,-0.45927706681370867,2.5479654008640558,90495.57533909987,0.7642248905635709,2.5479654008640567,0.7044724324624634,80.0,77.0,66.0,278.0,344.0,3.0,1045.0,1002.0,2.0,1.0,1.0,0.5,0.193102484839636,0.11588775127797651,2.0,1.0,1.0,0.5,0.08700563901338303,0.11515953084811614,28.0,14.0,14.0,0.5,1.5749133426075042,0.1147414821031661,5.0,1.0,4.0,0.2,0.9265951127281102,0.11663803950154639,20.0,19.0,1.0,0.95,,,,0.0,90073.0,90076.0,90153.0,90155.0,90172.0,90197.0,90214.0,90219.0,90477.0,90497.0
84,84,91003.57533909987,0.6384252548361198,0.34728402312572043,91106.84898777626,-0.8406097684861974,0.09755382794557717,91185.2159410054,1.7604784763323504,11.00869003759982,91219.15067819973,-0.3167149435409718,4.571883725274182,91481.84932180027,0.6654382475539841,5.095930801728113,0.7408501927261423,104.0,101.0,116.0,272.0,388.0,3.0,929.0,995.0,3.0,2.0,1.0,0.6666666666666666,0.3067096209634313,0.10481006352375381,2.0,1.0,1.0,0.5,0.1965336244804254,0.10481006352375381,28.0,14.0,14.0,0.5,1.6387808277186164,0.10481006352375381,6.0,3.0,3.0,0.5,0.5565896072682308,0.10481006352375381,70.0,17.0,53.0,0.24285714285714285,,,,0.0,91002.0,91005.0,91106.0,91108.0,91174.0,91198.0,91218.0,91222.0,91479.0,91494.0
85,85,92026.59387880978,0.8246852535239968,0.2750501381321494,92111.92476983456,-0.6339944754390368,0.06318633478591779,92185.97584442371,1.760178374752235,11.007257278498038,92216.12963542064,-0.3827685236898551,6.7372979282197685,92490.35348823451,0.54601752371562,25.47965400864057,0.8605034500095154,85.0,83.0,110.0,278.0,388.0,2.0,1023.0,1002.0,2.0,1.0,1.0,0.5,0.3744527544200093,0.10939227619183817,2.0,1.0,1.0,0.5,0.38383736795910417,0.11112339041680631,28.0,15.0,13.0,0.5357142857142857,1.5784428622036817,0.11077459570605214,10.0,5.0,5.0,0.5,0.7051084836567973,0.11082023333421781,34.0,25.0,9.0,0.7352941176470589,,,,0.0,92026.0,92028.0,92111.0,92113.0,92173.0,92197.0,92211.0,92221.0,92473.0,92499.0
86,86,92849.89790622143,0.35376223763688996,-0.1231284325405659,93144.15296592921,-0.2656223306853208,0.54028315537544,93185.31567001631,1.810598123486734,10.658828855405593,93213.05433763674,-0.3513500461627753,2.5479654008640567,93475.84932180027,0.6985462254420267,5.095930801728113,0.7258036780850198,294.0,292.0,71.0,268.0,339.0,2.0,823.0,1000.0,2.0,1.0,1.0,0.5,0.2064880537129776,0.11291982530673193,2.0,1.0,1.0,0.5,0.18527053351624567,0.11291982530673193,26.0,13.0,13.0,0.5,1.9580650178771968,0.11291982530673193,2.0,1.0,1.0,0.5,0.8521084540070174,0.11291982530673193,50.0,12.0,38.0,0.24,,,,0.0,92849.0,92851.0,93143.0,93145.0,93172.0,93198.0,93212.0,93214.0,93473.0,93482.0
87,87,94052.57533909987,0.17843967161957522,2.547965400863654,94108.50678136374,-2.0650087916767736,-0.2272923581897341,94185.57363793915,1.798282345136699,10.322361614082237,94220.57533909987,-0.2967187857368769,2.5479654008640567,94483.42466090013,0.616915444882237,2.5479654008640567,0.7103264992570558,56.0,53.0,115.0,262.0,377.0,3.0,1203.0,999.0,3.0,2.0,1.0,0.6666666666666666,0.1938770286806626,0.10968719200697698,3.0,2.0,1.0,0.6666666666666666,0.24175562750859703,0.11387772119056447,28.0,15.0,13.0,0.5357142857142857,1.7705741605280882,0.12103828291024138,2.0,1.0,1.0,0.5,0.4485214347918422,0.12134992766778131,2.0,1.0,1.0,0.5,,,,0.0,94051.0,94054.0,94107.0,94111.0,94172.0,94199.0,94220.0,94222.0,94482.0,94484.0
88,88,95056.66013648524,0.35606399998244237,0.5796645836651348,95124.59909822645,-0.8158878580964989,0.27095022157914406,95185.7059363376,1.789266722805816,10.674901525734654,95217.57533909987,-0.3687194059381523,2.5479654008640567,95495.2867401027,0.6113181846464346,22.93168860777651,0.8518724343240948,69.0,66.0,97.0,281.0,378.0,3.0,1004.0,1002.0,3.0,2.0,1.0,0.6666666666666666,0.40919097377433655,0.11068567516621106,2.0,1.0,1.0,0.5,0.3492694959647645,0.12448715265785301,26.0,14.0,12.0,0.5384615384615384,1.779545661388416,0.1191392647745423,4.0,1.0,3.0,0.25,0.6783734290114982,0.11104643731282801,34.0,14.0,20.0,0.4117647058823529,,,,0.0,95055.0,95058.0,95124.0,95126.0,95172.0,95198.0,95217.0,95221.0,95484.0,95502.0
89,89,96042.42466090013,0.8728252167506033,0.3096873162546839,96135.42466084422,-0.17281050233567016,2.5479654008640567,96187.45203459915,1.7114505523947638,10.873850964503863,96217.15067819973,-0.3566609822873001,5.095930801728113,96495.12330450071,0.6060635866150952,12.739827004320285,0.79120599832365,93.0,91.0,86.0,290.0,376.0,2.0,985.0,1004.0,2.0,1.0,1.0,0.5,0.46089682195153386,0.10933724314077194,2.0,1.0,1.0,0.5,0.2518023607607629,0.10933724314077194,24.0,15.0,9.0,0.625,1.69048467908334,0.10933724314077194,7.0,4.0,3.0,0.5714285714285714,0.6812401445308996,0.10933724314077194,44.0,14.0,30.0,0.3181818181818182,,,,0.0,96041.0,96043.0,96134.0,96136.0,96172.0,96196.0,96216.0,96220.0,96488.0,96510.0
90,90,97046.57533909987,0.35685275397623806,0.8159387535837787,97130.60246001421,-1.428747631110074,0.22767215050887396,97185.48424243306,1.7805974106987374,10.511611909940239,97219.15067819973,-0.31383643139575607,5.095930801728113,97509.57533909987,0.6894430518233918,2.5479654008640567,0.7274588618435427,85.0,82.0,92.0,294.0,386.0,3.0,1005.0,997.0,3.0,2.0,1.0,0.6666666666666666,0.2369143950750228,0.10912230055526678,2.0,1.0,1.0,0.5,0.3474252498573078,0.10554299373016146,27.0,12.0,15.0,0.4444444444444444,1.8439800580135386,0.10885527921976225,17.0,10.0,7.0,0.5882352941176471,0.38999746514932215,0.10744116491132238,7.0,1.0,6.0,0.14285714285714285,,,,0.0,97045.0,97048.0,97130.0,97132.0,97173.0,97200.0,97210.0,97222.0,97509.0,97516.0
91,91,98051.2329988962,0.4116989991526904,0.4968547959503315,98122.09987719328,-0.19891051284095038,0.5679913962294459,98185.39728720114,1.7504490513091469,11.17517178151256,98214.91781516811,-0.3299225300193693,5.095930801724745,98478.27398270041,0.6683003217805029,7.64389620259217,0.7516194787911049,71.0,69.0,96.0,266.0,362.0,2.0,1004.0,995.0,2.0,1.0,1.0,0.5,0.4221827018076769,0.11134433991033252,2.0,1.0,1.0,0.5,0.17191072566517887,0.11134433991033252,28.0,12.0,16.0,0.42857142857142855,1.6783929483680926,0.11134433991033252,7.0,5.0,2.0,0.7142857142857143,0.816963694616725,0.11134433991033252,57.0,4.0,53.0,0.07017543859649122,,,,0.0,98050.0,98052.0,98121.0,98123.0,98174.0,98199.0,98210.0,98217.0,98474.0,98483.0
92,92,99057.66521206635,0.8923200410947634,0.2711062476164303,99150.64084489533,-0.8992240079194739,0.24086704221032731,99185.45065673596,1.7785904618857877,10.540878443152973,99215.42466089559,-0.405049173735432,2.547965400863098,99501.30135639943,0.6598815835957935,10.191861603456227,0.7789900757193909,93.0,91.0,66.0,291.0,357.0,2.0,1007.0,1005.0,2.0,1.0,1.0,0.5,0.3640664521256066,0.11166318473540947,2.0,1.0,1.0,0.5,0.20086218172759737,0.11166318473540947,27.0,13.0,14.0,0.48148148148148145,1.7727334245222117,0.11166318473540947,2.0,1.0,1.0,0.5,0.9468771619306967,0.11166318473540947,46.0,40.0,6.0,0.8695652173913043,,,,0.0,99057.0,99059.0,99150.0,99152.0,99173.0,99199.0,99214.0,99216.0,99470.0,99507.0
93,93,100042.57533909987,0.2533307446182796,1.6603451554772273,100148.00833464018,-0.227251018151508,0.3930732331354729,100185.55983658275,1.8347210406989924,10.836663628642611,100214.42466090013,-0.3576707613599042,2.5479654008640567,100491.12307011134,0.6811566147502458,12.739827004320285,0.8011250224572746,105.0,102.0,70.0,277.0,347.0,3.0,985.0,998.0,3.0,1.0,2.0,0.3333333333333333,0.2899746442276915,0.12208115994228337,2.0,1.0,1.0,0.5,0.11796786514646351,0.11807162400119897,28.0,15.0,13.0,0.5357142857142857,1.738712162253163,0.11483467533022573,4.0,1.0,3.0,0.25,0.7036859556350875,0.11572291066568989,34.0,25.0,9.0,0.7352941176470589,,,,0.0,100042.0,100045.0,100147.0,100149.0,100173.0,100198.0,100213.0,100217.0,100481.0,100494.0
94,94,101937.90406129186,0.5389683450634145,0.11413038263705963,102147.91642655923,-0.4489752320319488,0.0936238884152909,102185.58129508718,1.806958731325939,10.463345064546177,102217.13387250368,-0.38456331760256623,2.5479654008640567,102486.8447168119,0.6430511691628408,7.64389620259217,0.7432489496591083,210.0,208.0,72.0,273.0,345.0,2.0,1895.0,1999.0,2.0,1.0,1.0,0.5,0.37573990016144726,0.12142439652247025,2.0,1.0,1.0,0.5,0.19162763098983568,0.1223279314254669,28.0,14.0,14.0,0.5,1.7438835210533774,0.12185444827956832,3.0,1.0,2.0,0.3333333333333333,0.8092954785129222,0.1217927725124713,56.0,22.0,34.0,0.39285714285714285,,,,0.0,101937.0,101939.0,102147.0,102149.0,102172.0,102200.0,102216.0,102219.0,102483.0,102492.0
95,95,102985.57649051807,1.5276810828993623,0.21617806812784168,103107.0409075481,-0.2363313847034161,2.547965400860442,103185.3090188164,1.7461209097500527,10.541421712576446,103218.57533909987,-0.4596668562013865,2.5479654008640567,103498.87622196926,0.6321181219877653,2.5479654008640567,0.7240527142109006,121.0,117.0,116.0,281.0,397.0,4.0,1048.0,998.0,2.0,1.0,1.0,0.5,0.1810420928152208,0.1100449414117587,3.0,1.0,2.0,0.3333333333333333,0.43904908194714476,0.1077254060285,26.0,13.0,13.0,0.5,1.7511881353919379,0.10585927916438988,4.0,1.0,3.0,0.25,0.6548049134306795,0.1078296449477533,5.0,1.0,4.0,0.2,,,,0.0,102985.0,102989.0,103106.0,103109.0,103172.0,103198.0,103218.0,103222.0,103498.0,103503.0
96,96,103872.93038782355,0.618886450796503,-0.06298462213816569,104147.17638255337,-0.21934882706909428,0.7692427469976755,104185.6522806313,1.8250130107166274,10.879007817411747,104217.57533909987,-0.3825286100705093,2.5479654008640567,104502.57548992842,0.6789213262640742,2.5479654008640567,0.7162511011037452,274.0,272.0,74.0,288.0,362.0,2.0,887.0,1007.0,2.0,1.0,1.0,0.5,0.3709123332629248,0.11156355224064606,3.0,1.0,2.0,0.3333333333333333,0.06103052767282786,0.10576384211150068,28.0,14.0,14.0,0.5,1.7571452414543356,0.10648654435635566,3.0,1.0,2.0,0.3333333333333333,0.80794104894564,0.10904289917110224,6.0,1.0,5.0,0.16666666666666666,,,,0.0,103872.0,103874.0,104146.0,104149.0,104172.0,104200.0,104217.0,104220.0,104502.0,104508.0
97,97,105045.57533909987,0.3662402795366482,0.6530816630580634,105153.42460073809,-0.6547129850591975,0.3270122820071929,105185.7953658464,1.7656473304000366,11.315394503217833,105215.43770687698,-0.33872680913458164,5.095930801424132,105517.57533909987,0.6106303564559534,2.547965400864056,0.7036313301386214,108.0,105.0,66.0,301.0,367.0,3.0,1173.0,998.0,3.0,2.0,1.0,0.6666666666666666,0.35596004573467543,0.11924710461793443,2.0,1.0,1.0,0.5,0.023204108268137125,0.11924710461793443,30.0,15.0,15.0,0.5,1.5298272591994277,0.11924710461793443,5.0,2.0,3.0,0.4,0.8363386529564956,0.11924710461793443,3.0,2.0,1.0,0.6666666666666666,,,,0.0,105044.0,105047.0,105152.0,105154.0,105172.0,105199.0,105213.0,105218.0,105516.0,105519.0
98,98,106072.99418372186,0.35678202131671705,0.8158143059957108,106128.80798539436,-3.5283439130511876,-0.08488622339934494,106185.08129532158,1.7770424675974261,10.849103523098037,106216.42466090013,-0.35756071252280713,2.5479654008640567,106496.57533909987,0.6927851839490926,2.5479654008640567,0.7190081349168912,57.0,52.0,91.0,288.0,379.0,5.0,1027.0,997.0,4.0,2.0,2.0,0.5,0.3031228903325458,0.12523313554876003,2.0,1.0,1.0,0.5,0.2661711329542033,0.11785948855711273,26.0,13.0,13.0,0.5,1.6959136902362975,0.11644554673549876,4.0,1.0,3.0,0.25,0.7088320012332942,0.11161447260223706,11.0,1.0,10.0,0.09090909090909091,,,,0.0,106071.0,106076.0,106128.0,106131.0,106172.0,106198.0,106215.0,106219.0,106496.0,106507.0
99,99,107877.04990035792,0.3058651848621691,-0.1343723155381987,108092.57539474763,-3.1995458339894793,0.18984097773093442,108185.5771520693,1.7335850682514187,11.182307750896053,108219.2017044104,-0.35726106027914706,2.5479654008640567,108468.84932180027,0.607806595277867,5.095930801728113,0.7145598087248475,216.0,214.0,129.0,249.0,378.0,2.0,1804.0,2003.0,2.0,1.0,1.0,0.5,0.3198784913401539,0.11601243576551971,2.0,1.0,1.0,0.5,0.3719234598555191,0.11544162356159111,30.0,15.0,15.0,0.5,1.6519867441397769,0.11544162356159111,3.0,1.0,2.0,0.3333333333333333,0.59612027813158,0.11544162356159111,64.0,5.0,59.0,0.078125,,,,0.0,107876.0,107878.0,108092.0,108095.0,108172.0,108199.0,108218.0,108221.0,108464.0,108470.0
100,100,109111.57549141446,0.6347463367066131,0.33687202082542667,109152.12148120748,-0.2804112436416885,0.6721236817122781,109185.64689798761,1.802451393880748,10.513516539211345,109219.57533909989,-0.29042624439003967,2.547954027384749,109498.72601729959,0.681452974001089,7.643896202591835,0.7487360205730293,41.0,38.0,70.0,282.0,352.0,3.0,1235.0,1000.0,3.0,2.0,1.0,0.6666666666666666,0.26844538919306293,0.11621906118382253,2.0,1.0,1.0,0.5,0.05308943821658421,0.11679717647192699,26.0,14.0,12.0,0.5384615384615384,1.790960331131661,0.11636499541796506,2.0,1.0,1.0,0.5,0.6463827059314595,0.11563767433831457,41.0,34.0,7.0,0.8292682926829268,,,,0.0,109110.0,109113.0,109151.0,109153.0,109174.0,109198.0,109219.0,109221.0,109465.0,109503.0
101,101,110041.29643795607,0.43267268684965193,0.5721953049282666,110103.02227332271,-0.28422508422006576,0.6241341942789502,110185.49629231493,1.7802419643957237,10.54359779047179,110222.42466089732,-1.0847125992275108,0.28883108737480545,110498.15076378561,0.7018199084776606,5.095930801728113,0.7150231482115137,62.0,59.0,121.0,278.0,399.0,3.0,929.0,999.0,3.0,1.0,2.0,0.3333333333333333,0.41547558414667407,0.11343750695814361,2.0,1.0,1.0,0.5,0.26991842376425423,0.11298539957184224,26.0,11.0,15.0,0.4230769230769231,1.767473396701405,0.11448074586218565,2.0,1.0,1.0,0.5,0.4731645600063409,0.11596738176595639,21.0,18.0,3.0,0.8571428571428571,,,,0.0,110040.0,110043.0,110102.0,110104.0,110174.0,110199.0,110221.0,110223.0,110491.0,110501.0
102,102,111047.14061885994,0.38038795158724287,0.6117177386348545,111085.20565423691,-589.5079301295353,0.05224421762986274,111185.3176168184,1.7752883441803997,10.831078996933265,111218.57533909987,-0.3416292540029573,2.5479654008640567,111504.30135639943,0.6756347266123459,10.191861603456227,0.7739579108873653,38.0,36.0,136.0,290.0,426.0,2.0,1006.0,996.0,2.0,1.0,1.0,0.5,0.3805167955743609,0.10746537503628296,2.0,1.0,1.0,0.5,0.18076130736174623,0.10752911382478021,27.0,13.0,14.0,0.48148148148148145,1.711050038612567,0.11031094024526576,4.0,3.0,1.0,0.75,0.7285451333781989,0.10838534999488901,66.0,39.0,27.0,0.5909090909090909,,,,0.0,111046.0,111048.0,111084.0,111086.0,111172.0,111198.0,111216.0,111220.0,111492.0,111510.0
103,103,112075.42466090013,0.2806427514206881,1.1479083174905682,112131.70749051859,-0.2448014994114766,0.6396863767192629,112185.24889527899,1.7437973222655117,10.994783569669277,112215.93559797514,-0.4602884339994396,1.6031099288079627,112493.42466090013,0.7096147292032408,2.5479654008640567,0.70215161038833,56.0,53.0,87.0,277.0,364.0,3.0,1028.0,1003.0,3.0,1.0,2.0,0.3333333333333333,0.2809875529913577,0.1116077340207753,3.0,2.0,1.0,0.6666666666666666,0.2879552706714503,0.11217896549386847,26.0,13.0,13.0,0.5,1.992328622976741,0.11207910749458354,3.0,2.0,1.0,0.6666666666666666,0.8628025249062434,0.11222518410548879,2.0,1.0,1.0,0.5,,,,0.0,112074.0,112077.0,112130.0,112133.0,112172.0,112198.0,112214.0,112217.0,112492.0,112494.0
104,104,112884.13574945866,0.3351620443279306,0.6191576341550065,113146.42466090013,-0.26067541906930014,0.6224649670882688,113185.54018769255,1.7743575955637412,10.876293948812261,113214.69448734086,-0.36852132639524826,2.5479654008640567,113501.42465563053,0.6235686157996287,2.5479654008640567,0.7052173699542804,262.0,260.0,71.0,286.0,357.0,2.0,809.0,1003.0,2.0,1.0,1.0,0.5,0.34090748017341627,0.11075258000762606,3.0,1.0,2.0,0.3333333333333333,0.2282699734966932,0.1120806729982989,26.0,13.0,13.0,0.5,1.6344261711884536,0.11127250481973697,2.0,1.0,1.0,0.5,0.7883395086967714,0.11227805152660303,4.0,3.0,1.0,0.75,,,,0.0,112883.0,112885.0,113145.0,113148.0,113173.0,113199.0,113214.0,113216.0,113498.0,113502.0
105,105,114027.42120946487,0.4088146919844198,0.022783078501752985,114155.86098447401,-0.23100367976170308,1.1444538694290873,114185.31467849831,1.7842488669994292,10.787557712451061,114219.58638016277,-0.32948074437183594,2.5089090308303224,114499.16026183985,0.6830769051061373,5.095930801727901,0.7351632247576859,129.0,126.0,67.0,281.0,348.0,3.0,1143.0,999.0,2.0,1.0,1.0,0.5,0.3437539043748273,0.11345744956495238,3.0,2.0,1.0,0.6666666666666666,0.16680443866630823,0.11345744956495238,29.0,15.0,14.0,0.5172413793103449,1.9024640467963088,0.11345744956495238,4.0,3.0,1.0,0.75,0.7285898918153391,0.11345744956495238,52.0,35.0,17.0,0.6730769230769231,,,,0.0,114025.0,114028.0,114154.0,114157.0,114173.0,114198.0,114217.0,114221.0,114476.0,114502.0
106,106,115032.78885093461,5.04093331124082,0.08854915974594979,115155.66082165019,-0.5363766755562344,0.31156556684379094,115185.01694266192,1.781498404669169,10.855506906044756,115222.57533909987,-0.3448452776320062,2.5479654008640567,115491.87669549929,0.6604364191892069,12.739827004320285,0.7844976381136471,123.0,121.0,69.0,275.0,344.0,2.0,1006.0,998.0,2.0,1.0,1.0,0.5,0.333619881684731,0.12068246988833821,2.0,1.0,1.0,0.5,0.16402258318355295,0.12017027016348797,26.0,13.0,13.0,0.5,1.8588915754548054,0.11999019006356114,11.0,10.0,1.0,0.9090909090909091,0.6165190281948265,0.12013931554038279,43.0,20.0,23.0,0.46511627906976744,,,,0.0,115032.0,115034.0,115155.0,115157.0,115172.0,115198.0,115213.0,115224.0,115487.0,115499.0
107,107,116054.91918927638,0.3250896543963031,0.7581813061417929,116123.6965167013,-0.21076111118083646,0.7486518998323295,116185.73872255067,1.7800829169313983,11.152656546634823,116216.42466090013,-0.37749485982007674,2.5479654008640567,116488.39728717782,0.6103111890148762,20.383723206912453,0.8351557628468935,69.0,66.0,98.0,291.0,389.0,3.0,1022.0,1002.0,3.0,2.0,1.0,0.6666666666666666,0.3728908913255334,0.10914982545054959,3.0,2.0,1.0,0.6666666666666666,0.1529795822376395,0.11111765386498236,29.0,15.0,14.0,0.5172413793103449,1.788779368772504,0.10955448552162332,5.0,1.0,4.0,0.2,0.8260454045731105,0.10915415981463872,71.0,35.0,36.0,0.49295774647887325,,,,0.0,116053.0,116056.0,116122.0,116125.0,116171.0,116200.0,116215.0,116220.0,116477.0,116511.0
108,108,117043.42466090013,0.21880691702178173,2.5479654008223807,117152.84932180027,-0.22668659643162561,0.9704755353822246,117184.82194810128,1.75377579728843,10.715915560935981,117216.98299660644,-0.4201064954793328,2.5479654008640567,117491.87669549929,0.6506456197793676,12.739827004320285,0.7896831983226974,108.0,104.0,69.0,280.0,349.0,4.0,988.0,994.0,4.0,1.0,3.0,0.25,0.3216865723707054,0.10965774257494769,4.0,2.0,2.0,0.5,0.08270530571523521,0.10965774257494769,26.0,13.0,13.0,0.5,1.9188489568090474,0.10965774257494769,3.0,1.0,2.0,0.3333333333333333,0.7053522091383108,0.10965774257494769,26.0,19.0,7.0,0.7307692307692307,,,,0.0,117042.0,117046.0,117150.0,117155.0,117172.0,117198.0,117216.0,117219.0,117473.0,117499.0
109,109,118082.57603943805,0.44830808612885575,0.40307617336885043,118102.42445700528,-0.5395910035211962,0.3273370523299469,118184.82194810128,1.8026283436016282,10.667776792378204,118222.3020418369,-0.5172690554334485,0.6176130764823168,118496.02882434386,0.6584802104226326,17.83575780604807,0.8246115591538825,20.0,17.0,123.0,294.0,417.0,3.0,1040.0,1000.0,3.0,2.0,1.0,0.6666666666666666,0.40180701063731167,0.11015257696084961,2.0,1.0,1.0,0.5,0.16726175101224322,0.10937732456492306,27.0,13.0,14.0,0.48148148148148145,1.8904139649851073,0.11773453070380574,3.0,1.0,2.0,0.3333333333333333,0.551095392453679,0.12384823713432924,87.0,50.0,37.0,0.5747126436781609,,,,0.0,118081.0,118084.0,118101.0,118103.0,118172.0,118199.0,118221.0,118224.0,118492.0,118518.0
110,110,119049.32599280792,0.8017682590905316,0.26353630713759496,119142.80288445749,-0.3405314832153011,0.721833508473711,119183.972626301,1.740563354475881,10.382473048587784,119220.57533909987,-0.39911456346857266,2.5479654008640567,119484.27398270041,0.618571924154046,7.64389620259217,0.7316793894292198,93.0,91.0,81.0,281.0,362.0,2.0,966.0,1000.0,2.0,1.0,1.0,0.5,0.3938904891073626,0.1163550102052424,3.0,2.0,1.0,0.6666666666666666,0.19207924265883117,0.11580085657010526,30.0,13.0,17.0,0.43333333333333335,1.6031934576829048,0.1163518484718581,13.0,12.0,1.0,0.9230769230769231,0.5017637539899903,0.11659471996670301,39.0,20.0,19.0,0.5128205128205128,,,,0.0,119048.0,119050.0,119141.0,119144.0,119174.0,119199.0,119209.0,119222.0,119480.0,119503.0
111,111,119869.78835515711,3.682784919255882,-0.09790747040197238,120105.57557078189,-0.9912868014462219,0.26537701249593226,120185.5045538616,1.7231701548263978,11.20097579556094,120218.72601729959,-0.2800132542173762,7.64389620259217,120489.84905177006,0.6551065624383647,10.191861603456227,0.7813888644620555,236.0,234.0,118.0,270.0,388.0,2.0,821.0,1006.0,2.0,1.0,1.0,0.5,0.3731481285512327,0.11686572222555858,2.0,1.0,1.0,0.5,0.3032415632403027,0.11683899604332258,29.0,15.0,14.0,0.5172413793103449,1.6155954962539205,0.1152639546380028,6.0,2.0,4.0,0.3333333333333333,0.5270207095900306,0.11588623490572547,56.0,20.0,36.0,0.35714285714285715,,,,0.0,119869.0,119871.0,120105.0,120107.0,120173.0,120196.0,120217.0,120223.0,120485.0,120493.0
112,112,121043.41245247232,2.794792446467203,0.2166256454070531,121078.19555512641,-0.2744203378350985,0.4822537960487344,121185.42906700596,1.776191748743208,10.692557028629954,121212.42466090013,-0.31229342411728406,2.54796539946287,121505.027373699,0.6013707152492694,17.8357578060484,0.8038214145715987,35.0,33.0,136.0,309.0,445.0,2.0,1173.0,997.0,2.0,1.0,1.0,0.5,0.40967491174755233,0.11445395704574071,2.0,1.0,1.0,0.5,0.342516475785107,0.1236024344684193,27.0,13.0,14.0,0.48148148148148145,1.7328270312407146,0.1394393998828281,2.0,1.0,1.0,0.5,0.9059950884163426,0.13450429405737188,80.0,40.0,40.0,0.5,,,,0.0,121042.0,121044.0,121077.0,121079.0,121172.0,121198.0,121211.0,121213.0,121501.0,121522.0
113,113,122049.42466090013,0.28653864149619207,1.1245940787937612,122148.9144192564,-0.2804522902199755,0.5940411871751556,122185.12455164567,1.7396403143988037,11.109931832093677,122216.42466090013,-0.3029412118335794,2.5479654008640567,122494.02737513739,0.6303140515387664,17.8357578060484,0.8177641196311638,100.0,96.0,69.0,299.0,368.0,4.0,1006.0,1001.0,4.0,1.0,3.0,0.25,0.4347692378248107,0.10198734104650808,2.0,1.0,1.0,0.5,0.14892291250962192,0.11269314744877389,28.0,13.0,15.0,0.4642857142857143,1.7832127773516675,0.11192303275687748,2.0,1.0,1.0,0.5,0.634495124012654,0.112890633618299,75.0,33.0,42.0,0.44,,,,0.0,122048.0,122052.0,122148.0,122150.0,122172.0,122200.0,122215.0,122217.0,122490.0,122516.0
114,114,123049.37711844286,1.296162978230989,0.2500575839879928,123110.59368155088,-1.1684326913490926,0.2357914765756351,123185.26080998876,1.7994635485704817,11.020228582971919,123215.17455625098,-0.34221639767347983,4.738512818880807,123506.42466089723,0.7487436801321039,2.5479654008640567,0.7117550420104046,62.0,60.0,108.0,295.0,403.0,2.0,1000.0,1003.0,2.0,1.0,1.0,0.5,0.39949471211322696,0.11575151518145183,2.0,1.0,1.0,0.5,0.2808145522704889,0.11575151518145183,30.0,15.0,15.0,0.5,1.830684512863419,0.11575151518145183,7.0,4.0,3.0,0.5714285714285714,0.5747876267334145,0.11575151518145183,8.0,1.0,7.0,0.125,,,,0.0,123048.0,123050.0,123110.0,123112.0,123173.0,123198.0,123214.0,123218.0,123505.0,123513.0
115,115,124047.42466090013,0.20225838699786597,2.5479654008607637,124157.6097275508,-1.8032700458341129,0.21401663295786713,124185.1298541315,1.8516410111643127,10.6109344253139,124276.57533909987,-1.7839594674897588,0.23506947764859432,124472.69864360057,0.6521853805453437,10.191861603456227,0.7705156811983738,111.0,108.0,121.0,200.0,321.0,3.0,998.0,1000.0,3.0,1.0,2.0,0.3333333333333333,0.45656597830415185,0.11463550559611785,2.0,1.0,1.0,0.5,0.2116939794352803,0.12121057359039693,27.0,13.0,14.0,0.48148148148148145,1.8370194992046924,0.1232403032171023,2.0,1.0,1.0,0.5,0.19445270689590527,0.12488494570922576,17.0,10.0,7.0,0.5882352941176471,,,,0.0,124046.0,124049.0,124157.0,124161.0,124173.0,124199.0,124276.0,124278.0,124467.0,124478.0
116,116,125058.57533909987,0.2091829002663082,2.5479654008640567,125097.40050440085,-0.7979785762095206,0.26393566217838155,125185.67028136631,1.8231549380380043,10.83003295527229,125214.87813407219,-0.34570115540513935,6.788702280339774,125489.92274230573,0.6247699831552647,17.8357578060484,0.8286135912864928,39.0,36.0,126.0,289.0,415.0,3.0,1012.0,1000.0,3.0,2.0,1.0,0.6666666666666666,0.1352233484351728,0.11542255333526161,2.0,1.0,1.0,0.5,0.13183044498075516,0.11682465803065405,28.0,14.0,14.0,0.5,1.733258623003587,0.11672118444720181,11.0,4.0,7.0,0.36363636363636365,0.5838204670456599,0.12224158621555489,53.0,32.0,21.0,0.6037735849056604,,,,0.0,125057.0,125060.0,125096.0,125098.0,125172.0,125200.0,125211.0,125222.0,125481.0,125511.0
117,117,127040.89251780784,0.3607213382719363,0.1317241220296848,127089.19616721824,-0.3855065744996239,0.007721838539911097,127185.46125849317,1.7567061676817088,10.34820075419501,127216.42428374829,-0.3650821785432124,2.547949363808588,127480.69863075946,0.644039197437475,10.191361223176255,0.7626449346279212,48.0,46.0,132.0,263.0,395.0,2.0,1982.0,1997.0,2.0,1.0,1.0,0.5,0.22626878576414458,0.10954964945619936,2.0,1.0,1.0,0.5,0.27453111255431645,0.14007120743093715,24.0,12.0,12.0,0.5,2.070968641404718,0.1145168995099731,5.0,1.0,4.0,0.2,0.7073462055674926,0.10225160227870593,59.0,24.0,35.0,0.4067796610169492,,,,0.0,127040.0,127042.0,127088.0,127090.0,127173.0,127197.0,127215.0,127220.0,127470.0,127483.0
118,118,128038.0951342535,0.4099562387249962,0.4036204991394091,128151.15389282627,-0.31373387104194544,0.8535081063734451,128185.63934144493,1.7901244300508792,10.245837332384461,128221.90076288368,-0.4263062596533189,0.6630623926882644,128494.30137129492,0.6495870337170426,10.191861603456227,0.775339240989403,113.0,111.0,73.0,290.0,363.0,2.0,997.0,999.0,2.0,1.0,1.0,0.5,0.5131387392789939,0.11113101684150567,2.0,1.0,1.0,0.5,0.261918984720251,0.11113101684150567,28.0,14.0,14.0,0.5,1.5489053851299737,0.11113101684150567,2.0,1.0,1.0,0.5,0.5805914721958603,0.11113101684150567,22.0,2.0,20.0,0.09090909090909091,,,,0.0,128037.0,128039.0,128150.0,128152.0,128172.0,128199.0,128221.0,128223.0,128492.0,128513.0
119,119,129057.57561207093,1.2122780879493638,0.2626300472996277,129131.57657296293,-1.543205953611862,0.22999095597563973,129185.67069183497,1.7854497541087015,10.527647103708833,129216.42466090013,-0.39038791096357767,2.5479654008640567,129493.90777171643,0.6414399748320334,2.5479654008640567,0.700952869491041,74.0,71.0,91.0,273.0,364.0,3.0,1020.0,1001.0,2.0,1.0,1.0,0.5,0.2887429674501971,0.11849348002570192,2.0,1.0,1.0,0.5,0.39737395457166214,0.11849348002570192,26.0,13.0,13.0,0.5,1.7926816528073881,0.11849348002570192,7.0,1.0,6.0,0.14285714285714285,0.6396570950933315,0.11849348002570192,13.0,12.0,1.0,0.9230769230769231,,,,0.0,129057.0,129060.0,129131.0,129133.0,129173.0,129199.0,129215.0,129222.0,129482.0,129495.0
120,120,130058.78748161111,0.4376927857004922,0.4642725085947908,130146.79961235072,-0.2057819220553444,0.7611255860118739,130185.267473167,1.796323723739961,11.17346100795113,130214.42466090013,-0.36875682060478876,2.5479654008640567,130505.15067819973,0.7325063373382507,5.095930801728113,0.7238617646167955,87.0,85.0,76.0,287.0,363.0,2.0,1001.0,998.0,2.0,1.0,1.0,0.5,0.40315245545485434,0.11682096997126971,3.0,2.0,1.0,0.6666666666666666,0.08371190619016176,0.11682096997126971,26.0,13.0,13.0,0.5,1.8668338615300746,0.11682096997126971,8.0,1.0,7.0,0.125,0.8196682091458882,0.11682096997126971,71.0,44.0,27.0,0.6197183098591549,,,,0.0,130058.0,130060.0,130145.0,130148.0,130173.0,130197.0,130213.0,130221.0,130470.0,130508.0
121,121,131051.57534994093,1.4540986960055768,0.2583593372710796,131150.42455251009,-0.18492776170174746,2.547915199982552,131185.48509541835,1.7562825656679628,10.921656936828747,131217.5753390999,-0.40737041081091924,2.5479654008640567,131467.84932180025,0.6179866701931391,5.095930801728113,0.7237225893972917,97.0,95.0,71.0,261.0,332.0,2.0,993.0,1002.0,2.0,1.0,1.0,0.5,0.3627138517377845,0.11220040805641673,3.0,2.0,1.0,0.6666666666666666,0.026343103238140653,0.11196662446409973,27.0,13.0,14.0,0.48148148148148145,1.8786706330308662,0.1118733802935876,2.0,1.0,1.0,0.5,0.670239569470472,0.11235778301172825,83.0,16.0,67.0,0.1927710843373494,,,,0.0,131051.0,131053.0,131148.0,131151.0,131172.0,131199.0,131217.0,131219.0,131465.0,131480.0
122,122,132050.9079087029,0.29442035940955036,0.6643966079861251,132130.42231405957,-0.9207920105933234,0.2894181586573453,132185.37345884068,1.775719136808905,10.265050672612041,132236.6754784194,-0.700504964718888,0.250285177545577,132485.84799291054,0.6567552797701948,5.09593080172304,0.7306284671197223,79.0,77.0,109.0,249.0,358.0,2.0,999.0,1003.0,2.0,1.0,1.0,0.5,0.22704010384162374,0.11137492359921544,2.0,1.0,1.0,0.5,0.4627859472255397,0.11169708086725443,26.0,12.0,14.0,0.46153846153846156,1.8697698208345095,0.1122908984287419,2.0,1.0,1.0,0.5,0.2875118921858983,0.11131069896402981,71.0,31.0,40.0,0.43661971830985913,,,,0.0,132050.0,132052.0,132129.0,132131.0,132173.0,132198.0,132236.0,132238.0,132475.0,132487.0
123,123,133036.7926284107,0.3419641638983574,0.640132245187194,133125.5796734045,-1.747417212823236,0.2313407612800774,133185.60162974117,1.779394851193112,11.061015322836962,133212.4246609001,-0.4133621329154402,2.5479654008640567,133496.27398270037,0.6964605332616686,7.64389620259217,0.740417973323715,90.0,87.0,88.0,285.0,373.0,3.0,986.0,997.0,3.0,2.0,1.0,0.6666666666666666,0.4716704358754331,0.15538291815296823,2.0,1.0,1.0,0.5,0.3303191308890968,0.1379277054465685,26.0,13.0,13.0,0.5,1.6297946608332774,0.14292279763844343,2.0,1.0,1.0,0.5,1.1209203048877732,0.12584750281462267,52.0,35.0,17.0,0.6730769230769231,,,,0.0,133035.0,133038.0,133125.0,133127.0,133173.0,133199.0,133211.0,133213.0,133487.0,133498.0
124,124,134119.6058662496,0.7879187494128402,-0.2731160635835552,134144.2966704802,-0.3808025546620711,0.34392005030908473,134185.60234820234,1.771995147067267,10.780178797211436,134218.15067819975,-0.3390398315710715,5.095930801728113,134485.12330450068,0.6042371817179095,12.739827004320285,0.80050127327215,24.0,22.0,79.0,278.0,357.0,2.0,1083.0,999.0,2.0,1.0,1.0,0.5,0.2632735263108816,0.11400916652939919,2.0,1.0,1.0,0.5,0.21568116701076195,0.1161897163672129,27.0,13.0,14.0,0.48148148148148145,1.7402789656540398,0.1203876463669974,16.0,7.0,9.0,0.4375,0.5621293915608586,0.12026545451938103,66.0,34.0,32.0,0.5151515151515151,,,,0.0,134119.0,134121.0,134143.0,134145.0,134174.0,134199.0,134217.0,134222.0,134478.0,134500.0
125,125,135860.22891822117,0.2780961016501765,0.712559396621191,136120.2831409983,-4.167629052916027,0.11771764591464826,136185.63430736065,1.7442478622305366,11.046125723463984,136216.2222725256,-0.3444147723913949,5.095930801542705,136471.4246609001,0.6526617133752909,2.5479654008640567,0.7144368050734442,260.0,257.0,101.0,264.0,365.0,3.0,1740.0,2001.0,3.0,1.0,2.0,0.3333333333333333,0.24230783940818632,0.10796624855163034,3.0,1.0,2.0,0.3333333333333333,0.2863742787843382,0.11005606117295037,27.0,14.0,13.0,0.5185185185185185,1.7636784319798604,0.11005606117295037,8.0,1.0,7.0,0.125,0.6659710888873194,0.11005606117295037,14.0,1.0,13.0,0.07142857142857142,,,,0.0,135859.0,135862.0,136119.0,136123.0,136172.0,136199.0,136215.0,136220.0,136470.0,136484.0
126,126,137039.4246609001,0.22249584202475634,2.5479653980253234,137104.69636003082,-0.8095174141822377,0.22106633349954055,137185.3863169361,1.733261780728587,10.975946947072408,137214.4246609001,-0.4470305048247785,2.5479654008640567,137490.42182843693,0.6874130661283081,7.64389620259217,0.7590017997768597,67.0,64.0,113.0,281.0,394.0,3.0,1179.0,1001.0,3.0,2.0,1.0,0.6666666666666666,0.3533692117022168,0.10964616397600777,2.0,1.0,1.0,0.5,0.1872260413895517,0.10964616397600777,29.0,14.0,15.0,0.4827586206896552,1.4933402270592413,0.10964616397600777,4.0,1.0,3.0,0.25,0.9026861976886518,0.10964616397600777,11.0,3.0,8.0,0.2727272727272727,,,,0.0,137037.0,137040.0,137104.0,137106.0,137172.0,137198.0,137213.0,137217.0,137487.0,137498.0
127,127,138068.14098546244,0.23955022652614938,1.5951070184115272,138148.30558031925,-0.19694163347446736,0.011941853397319235,138186.60273331622,1.7445572498401685,11.54103147776508,138215.25300511703,-0.34623303890905766,4.809818312246639,138497.03615395288,0.5808866225403575,32.393178208697215,0.872835147438679,79.0,77.0,72.0,298.0,370.0,2.0,1029.0,1004.0,2.0,1.0,1.0,0.5,0.41941524350416837,0.11545596010211746,2.0,1.0,1.0,0.5,0.016243144987582267,0.11545596010211746,28.0,15.0,13.0,0.5357142857142857,1.7730455784628374,0.11545596010211746,8.0,2.0,6.0,0.25,0.6050073099902706,0.11545596010211746,77.0,44.0,33.0,0.5714285714285714,,,,0.0,138067.0,138069.0,138146.0,138149.0,138172.0,138198.0,138213.0,138218.0,138489.0,138516.0
128,128,139058.1961465284,0.2898931217740808,0.6224647499288728,139117.94154139378,-0.1920198660868936,1.1152533097722683,139185.37486154636,1.841622604661331,10.674046112156145,139216.7119852074,-0.34264609766941256,2.5479654008640567,139488.15067819975,0.6708037597798776,5.095930801728113,0.7325309986235115,60.0,58.0,101.0,274.0,375.0,2.0,990.0,995.0,2.0,1.0,1.0,0.5,0.22288066960771008,0.1151375515927177,2.0,1.0,1.0,0.5,0.04374213715387928,0.1151375515927177,26.0,12.0,14.0,0.46153846153846156,1.9724631814510627,0.1151375515927177,4.0,3.0,1.0,0.75,0.6616722869174183,0.1151375515927177,65.0,33.0,32.0,0.5076923076923077,,,,0.0,139057.0,139059.0,139117.0,139119.0,139173.0,139199.0,139214.0,139218.0,139487.0,139492.0
129,129,140071.9064510434,0.4172840100711278,0.4136128810396198,140105.33946773718,-0.18351019125491164,2.547965400864017,140185.36927099648,1.7586328837828102,10.413877323511482,140216.5753390999,-0.4187942317287434,2.5479654008640567,140512.5753390999,0.5964289357110387,2.5479654008640567,0.6820260404523372,33.0,31.0,114.0,296.0,410.0,2.0,1014.0,1004.0,2.0,1.0,1.0,0.5,0.3551629043050952,0.11515759805997416,3.0,1.0,2.0,0.3333333333333333,0.21381053608508327,0.12048705625264439,29.0,14.0,15.0,0.4827586206896552,1.7421343940034055,0.12088049959583534,4.0,3.0,1.0,0.75,0.738970905340941,0.11696077481027731,5.0,4.0,1.0,0.8,,,,0.0,140071.0,140073.0,140104.0,140107.0,140172.0,140199.0,140214.0,140218.0,140509.0,140514.0
130,130,141027.57546033684,1.1892945712609615,0.2598695040705189,141129.95783631515,-0.2927607345196459,0.6850967685177933,141185.74980850832,1.854731464863047,10.70111645878575,141216.13291366212,-0.3269598359820845,5.665046984828084,141491.90062210851,0.5775126304925116,25.47965400864057,0.8717340847480674,102.0,99.0,89.0,283.0,372.0,3.0,956.0,994.0,2.0,1.0,1.0,0.5,0.44844409524480644,0.11361439594176499,2.0,1.0,1.0,0.5,0.40899562458577776,0.11171112255402847,27.0,14.0,13.0,0.5185185185185185,1.7814385366583403,0.11104803626450599,7.0,5.0,2.0,0.7142857142857143,0.550028333189079,0.11132337607266546,56.0,35.0,21.0,0.625,,,,0.0,141027.0,141030.0,141129.0,141131.0,141172.0,141198.0,141212.0,141218.0,141463.0,141501.0
131,131,142044.79069585205,0.3144816760253426,0.5020723088193139,142098.5753390999,-0.13523718290732728,2.5479654008640567,142185.7053857842,1.79089691315333,10.216062838629215,142220.5753390999,-0.3721863812791185,2.5479654008640567,142492.06157759065,0.6153292947660618,17.8357578060484,0.8204983617155597,51.0,49.0,127.0,276.0,403.0,2.0,1017.0,1003.0,2.0,1.0,1.0,0.5,0.22940218117045058,0.1137655987634665,5.0,4.0,1.0,0.8,0.043116291276952406,0.11913848516220377,22.0,11.0,11.0,0.5,1.8877134099675996,0.12039700837363769,9.0,8.0,1.0,0.8888888888888888,0.4500969295461732,0.1152368092275979,26.0,14.0,12.0,0.5384615384615384,,,,0.0,142044.0,142046.0,142095.0,142100.0,142175.0,142197.0,142213.0,142222.0,142480.0,142498.0
132,132,142876.26420201917,0.3934318120450958,0.4726693089292686,143125.19792259656,-0.29757482739516045,0.5920820379105715,143185.37753382084,1.7780905828158642,10.832997166260263,143211.4246609001,-0.35136539230538966,2.547952917616995,143511.15067819975,0.6017679533030862,5.095930801728113,0.7221624495187444,249.0,247.0,90.0,303.0,393.0,2.0,831.0,1000.0,2.0,1.0,1.0,0.5,0.3835238772826781,0.10332385946521161,2.0,1.0,1.0,0.5,0.35642259876971805,0.11575906621689144,27.0,13.0,14.0,0.48148148148148145,1.8355361939381156,0.1184940763618065,4.0,1.0,3.0,0.25,0.9228536025783465,0.11752244706657522,58.0,46.0,12.0,0.7931034482758621,,,,0.0,142875.0,142877.0,143124.0,143126.0,143172.0,143197.0,143210.0,143214.0,143510.0,143517.0
133,133,144047.4246609001,0.16997389412117966,2.5479654008640567,144092.38418409825,-0.617601559045347,0.28686392873828154,144185.11153194768,1.7943350863974175,10.248451686561005,144217.5753390999,-0.3387155679068855,2.5479654008640567,144492.62243279276,0.6079752602256951,17.8357578060484,0.8088976101853166,45.0,43.0,128.0,283.0,411.0,2.0,1171.0,1001.0,2.0,1.0,1.0,0.5,0.25662806741196903,0.11481735287119052,2.0,1.0,1.0,0.5,0.26385844865053193,0.11550682258053878,27.0,14.0,13.0,0.5185185185185185,1.7775916954967985,0.1156128135256396,5.0,4.0,1.0,0.8,0.5860109981032338,0.11605762202810802,57.0,26.0,31.0,0.45614035087719296,,,,0.0,144046.0,144048.0,144091.0,144093.0,144173.0,144197.0,144214.0,144219.0,144484.0,144502.0
134,134,144813.60041689503,1.6129156456110716,0.22151319602321237,145127.766389321,-0.35846841262166673,0.37599419658534433,145185.26733612284,1.8467876637124814,10.58339709890156,145218.5753390999,-0.2979595273394228,2.5479654008640567,145491.03085844975,0.536079994201941,35.671515612087724,0.8732983533698799,314.0,312.0,93.0,286.0,379.0,2.0,767.0,998.0,2.0,1.0,1.0,0.5,0.19561062551863362,0.12953328347540533,2.0,1.0,1.0,0.5,0.2943613011483627,0.15167445422596224,26.0,12.0,14.0,0.46153846153846156,1.9573854519035918,0.13910147579850415,4.0,3.0,1.0,0.75,0.5105404713067703,0.10699187026262011,29.0,14.0,15.0,0.4827586206896552,,,,0.0,144813.0,144815.0,145127.0,145129.0,145173.0,145199.0,145216.0,145220.0,145477.0,145506.0
135,135,146066.12469518767,0.3055563468786307,0.5157582942750312,146105.2343013865,-0.27738082086970023,0.6029707772666807,146185.52704933204,1.7675253547359377,10.896389559118706,146215.5753390999,-0.41837376480274696,2.5479654008640567,146493.91054574374,0.6488989010283306,20.383723206912453,0.8387176220263761,39.0,37.0,113.0,287.0,400.0,2.0,1252.0,1001.0,2.0,1.0,1.0,0.5,0.24561443104796232,0.10809547813770555,3.0,1.0,2.0,0.3333333333333333,0.34147237510620765,0.10809547813770555,26.0,13.0,13.0,0.5,1.869895525207466,0.10809547813770555,3.0,2.0,1.0,0.6666666666666666,0.7819422010423722,0.10809547813770555,51.0,25.0,26.0,0.49019607843137253,,,,0.0,146065.0,146067.0,146104.0,146107.0,146173.0,146199.0,146214.0,146217.0,146480.0,146504.0
136,136,146989.3953892394,0.9630133373618797,0.271301160855674,147082.5800192912,-1.6690764678416066,0.22924647696968936,147185.52318531202,1.7309401609790824,11.244349338900845,147215.84932180025,-0.3308250949329918,5.095930801728113,147478.66522996873,0.6656497898837577,2.5479654008640567,0.7193280559203453,94.0,92.0,138.0,260.0,398.0,2.0,923.0,999.0,2.0,1.0,1.0,0.5,0.3186472128872245,0.1032405135890913,2.0,1.0,1.0,0.5,0.37293563311810674,0.09412998500209371,29.0,15.0,14.0,0.5172413793103449,1.6862060081071562,0.11287209622127233,7.0,3.0,4.0,0.42857142857142855,0.6466433425748791,0.1288557027661268,10.0,9.0,1.0,0.9,,,,0.0,146988.0,146990.0,147082.0,147084.0,147173.0,147199.0,147213.0,147220.0,147470.0,147480.0
137,137,147815.1522919992,0.3566488072653242,0.6609206902251185,148105.424656049,-300.8100151051196,0.11554481531480626,148185.57577355806,1.749162485505389,10.978380958483747,148214.72376091726,-0.36947256906382514,2.5479654008564814,148493.8766954994,0.6301152713463878,12.739827004320283,0.790142564087889,290.0,288.0,113.0,284.0,397.0,2.0,826.0,1000.0,2.0,1.0,1.0,0.5,0.48761268980745787,0.11446167854154396,2.0,1.0,1.0,0.5,0.383156813855072,0.11296469291119102,26.0,14.0,12.0,0.5384615384615384,1.5599777387280236,0.11541171441792575,3.0,1.0,2.0,0.3333333333333333,0.7698956243691256,0.11538697273685003,49.0,20.0,29.0,0.40816326530612246,,,,0.0,147814.0,147816.0,148104.0,148106.0,148174.0,148198.0,148214.0,148217.0,148488.0,148501.0
138,138,149013.050323595,0.36989866807371713,0.3017955556137035,149126.57538191014,-1.2915669496930433,0.2465168271688687,149185.61596432593,1.7738409510165418,10.659431943461456,149215.4246609001,-0.3831273659311409,2.5479654008640567,149498.84932080103,0.6983744996002635,5.095930801728113,0.709840049103218,114.0,112.0,90.0,286.0,376.0,2.0,1198.0,1000.0,2.0,1.0,1.0,0.5,0.45997211516883635,0.11400307559816339,2.0,1.0,1.0,0.5,0.2255736555118895,0.11358778936310027,27.0,13.0,14.0,0.48148148148148145,1.6734307654905143,0.11370108520160742,3.0,2.0,1.0,0.6666666666666666,0.676571096460519,0.11312061467327787,83.0,45.0,38.0,0.5421686746987951,,,,0.0,149012.0,149014.0,149126.0,149128.0,149173.0,149200.0,149213.0,149216.0,149496.0,149502.0
139,139,150036.42465172953,1.053476956139762,0.28025529896041734,150146.13103987268,-0.3987473210258301,0.14829246492786116,150185.44029535502,1.7230606436766964,10.680098938942676,150216.4246001879,-0.3678070574572309,2.5479654008639008,150480.69864360054,0.5932703565110764,10.191861603456227,0.754045408416037,110.0,108.0,77.0,264.0,341.0,2.0,1023.0,1003.0,2.0,1.0,1.0,0.5,0.27673821223724154,0.11932855580787091,2.0,1.0,1.0,0.5,0.23069277452654566,0.12509284283425154,26.0,12.0,14.0,0.46153846153846156,1.7276715379894783,0.1154749604652498,7.0,1.0,6.0,0.14285714285714285,0.7572607431037509,0.11232546326145429,64.0,23.0,41.0,0.359375,,,,0.0,150035.0,150037.0,150145.0,150147.0,150173.0,150199.0,150215.0,150222.0,150475.0,150486.0
140,140,151040.18618108102,0.3284548917373168,0.604873159629191,151135.81973709055,-1.2443683403937433,0.10988788972601402,151185.6373188042,1.804455790371027,11.166652201186386,151215.4868220143,-0.303352927234894,5.095930800337306,151483.4246609001,0.7116489185337826,2.5479654008640567,0.7106469055596096,96.0,94.0,82.0,296.0,378.0,2.0,1004.0,997.0,2.0,1.0,1.0,0.5,0.32434947447634577,0.11570251884955463,2.0,1.0,1.0,0.5,0.3092304410126244,0.1248323503135649,27.0,14.0,13.0,0.5185185185185185,1.7591440267141603,0.11576387298993648,4.0,2.0,2.0,0.5,0.6639157259697597,0.10845221804234689,31.0,1.0,30.0,0.03225806451612903,,,,0.0,151039.0,151041.0,151135.0,151137.0,151172.0,151199.0,151213.0,151217.0,151482.0,151513.0
141,141,151974.73407345824,21.140915658790746,-0.09037082056219974,152134.4246609001,-0.1504884266778998,2.5479654008624224,152185.5991819112,1.703001408639286,10.294603307804916,152216.57696228978,-0.518622125685331,2.5479654008640567,152480.4246609001,0.5654981329935234,2.5479654008640567,0.7146804470573584,159.0,156.0,85.0,273.0,358.0,3.0,935.0,998.0,2.0,1.0,1.0,0.5,0.21950631236570362,0.12286791651679577,2.0,1.0,1.0,0.5,0.20857141570809312,0.11537818374456246,27.0,14.0,13.0,0.5185185185185185,1.6377124594342707,0.11294603036837883,3.0,2.0,1.0,0.6666666666666666,0.8962427346990882,0.11324307706823096,12.0,1.0,11.0,0.08333333333333333,,,,0.0,151974.0,151977.0,152133.0,152135.0,152172.0,152199.0,152215.0,152218.0,152479.0,152491.0
142,142,153040.15049383233,2.3653645666158534,0.08185578037945905,153096.57533917532,-1.0220078475617955,0.24051870391142724,153185.5535796528,1.7543507527170954,10.710145955465691,153216.5753390999,-0.31104147354695183,2.5479654006657486,153498.30135639946,0.6567244131525225,10.191861603456227,0.7763798616843235,57.0,55.0,122.0,286.0,408.0,2.0,1065.0,1002.0,2.0,1.0,1.0,0.5,0.5788316588774812,0.10981667915149587,2.0,1.0,1.0,0.5,0.17919679564921473,0.10981667915149587,28.0,15.0,13.0,0.5357142857142857,1.6573845097719961,0.10981667915149587,5.0,4.0,1.0,0.8,0.777142328348477,0.10981667915149587,29.0,23.0,6.0,0.7931034482758621,,,,0.0,153039.0,153041.0,153096.0,153098.0,153175.0,153198.0,153213.0,153218.0,153475.0,153504.0
143,143,154052.5753390999,0.22109419378175404,2.5479653400052276,154105.5753390999,-0.2580125029497838,1.0205707836763174,154185.42538655773,1.752079968668974,10.869298963049248,154216.5753390999,-0.43537139888792203,2.5479654008640567,154493.60271279886,0.5972909440045322,20.383723206912453,0.830403596679356,52.0,50.0,114.0,312.0,426.0,2.0,1013.0,1000.0,2.0,1.0,1.0,0.5,0.28134088402804336,0.11343732282112821,3.0,2.0,1.0,0.6666666666666666,0.16064459720840385,0.11343732282112821,26.0,13.0,13.0,0.5,1.858272550316978,0.11343732282112821,6.0,5.0,1.0,0.8333333333333334,0.5872517111346702,0.11343732282112821,83.0,46.0,37.0,0.5542168674698795,,,,0.0,154052.0,154054.0,154104.0,154107.0,154172.0,154198.0,154212.0,154218.0,154489.0,154530.0
144,144,154877.8096724698,0.2735248868734119,-0.005857031219674513,155127.8758152124,-0.28821032857814,-0.1691168888733497,155185.27361586277,1.7559591485715031,10.401039147795336,155217.57533913082,-0.43314745011682626,2.5479654008639647,155490.8328705106,0.4939304454843402,35.25932151577325,0.8696804551990988,250.0,248.0,92.0,288.0,380.0,2.0,825.0,1000.0,2.0,1.0,1.0,0.5,0.19445788848018392,0.1164467590802684,2.0,1.0,1.0,0.5,0.24905113267481838,0.1164467590802684,26.0,13.0,13.0,0.5,1.850855752156027,0.1164467590802684,2.0,1.0,1.0,0.5,0.656995920676035,0.1164467590802684,39.0,23.0,16.0,0.5897435897435898,,,,0.0,154877.0,154879.0,155127.0,155130.0,155172.0,155198.0,155217.0,155219.0,155472.0,155507.0
145,145,156046.3921556844,1.8352038411400902,0.2116973970044591,156151.00543508248,-0.20749374101226906,1.1022985317259086,156185.17561144513,1.7891982235734443,10.621060118443172,156219.5753390999,-0.25272205613877397,2.5479654008640567,156494.30894512378,0.5262315487696114,35.6715156120968,0.8806280210400306,105.0,103.0,71.0,287.0,358.0,2.0,1168.0,1000.0,2.0,1.0,1.0,0.5,0.45099910338186333,0.10903440780056513,2.0,1.0,1.0,0.5,0.062789420136246,0.10788864068307395,25.0,12.0,13.0,0.48,1.9604299702510275,0.1069226250634885,3.0,2.0,1.0,0.6666666666666666,0.4511719690123646,0.10781995054271273,33.0,19.0,14.0,0.5757575757575758,,,,0.0,156045.0,156047.0,156150.0,156152.0,156173.0,156198.0,156218.0,156221.0,156475.0,156508.0
146,146,156879.33406058405,0.3789665196425221,-0.007196628398766114,157149.575770481,-0.8096142002214225,0.342220880252914,157185.3472212334,1.738924335802131,10.04782249988972,157225.61699624007,-0.3596784221649218,0.9403109401946071,157503.30135641363,0.5747755482041096,10.191861603456227,0.7594143093296325,272.0,268.0,79.0,282.0,361.0,4.0,833.0,1000.0,2.0,1.0,1.0,0.5,0.26941219995259413,0.11364329377396949,3.0,2.0,1.0,0.6666666666666666,0.12434410533349465,0.109816382784159,23.0,11.0,12.0,0.4782608695652174,1.8621677716048843,0.11055505045142269,3.0,2.0,1.0,0.6666666666666666,0.3168001896520156,0.10889646978453991,64.0,43.0,21.0,0.671875,,,,0.0,156876.0,156880.0,157148.0,157151.0,157174.0,157197.0,157224.0,157227.0,157499.0,157509.0
147,147,157994.88222838592,1.7805371902797724,-0.07101333591399818,158134.21862097844,-0.22588654549193488,0.6377152539660205,158185.56845453748,1.7974619844467028,10.852538410135288,158217.5753390999,-0.33965842431699395,2.5479625494011815,158470.84932180025,0.6201486308358072,5.095930696243339,0.7239101157559105,139.0,137.0,86.0,257.0,343.0,2.0,1116.0,1002.0,2.0,1.0,1.0,0.5,0.42229152555626537,0.11686927451590277,3.0,1.0,2.0,0.3333333333333333,0.28866166495583134,0.11686927451590277,27.0,14.0,13.0,0.5185185185185185,1.8267518550409192,0.11686927451590277,4.0,3.0,1.0,0.75,0.6312860769022521,0.11686927451590277,54.0,5.0,49.0,0.09259259259259259,,,,0.0,157994.0,157996.0,158133.0,158136.0,158174.0,158198.0,158215.0,158219.0,158468.0,158476.0
148,148,159029.5900392621,1.5357503178169223,0.24395735405189492,159123.38734671692,-3.314213604336579,0.17621901122933126,159185.4605566565,1.7789827253717791,10.467000255554268,159219.15067819975,-0.27536093587806815,5.095930801728113,159492.17805189887,0.5466984199790265,22.93168860777651,0.8547470580411841,93.0,91.0,100.0,290.0,390.0,2.0,1035.0,999.0,2.0,1.0,1.0,0.5,0.46960609804683445,0.123333592011073,2.0,1.0,1.0,0.5,0.16007586027442866,0.14795117638247712,25.0,12.0,13.0,0.48,1.7531214562989081,0.1247535045997413,9.0,5.0,4.0,0.5555555555555556,0.4109211133034697,0.09042081318521397,45.0,23.0,22.0,0.5111111111111111,,,,0.0,159029.0,159031.0,159122.0,159124.0,159173.0,159198.0,159218.0,159222.0,159487.0,159512.0
149,149,160041.4246608965,0.44219399569873735,0.38644808553942206,160089.09507008165,-1.105103404479375,-0.059737438431846854,160185.67616166084,1.7320073463013708,11.068948112366133,160216.1520519838,-0.35989363916016803,4.757890268909735,160490.87669549932,0.6658768881215474,12.739827004320285,0.8031425064647204,46.0,43.0,136.0,276.0,412.0,3.0,1011.0,997.0,3.0,1.0,2.0,0.3333333333333333,0.29528549151940975,0.11373196244450236,2.0,1.0,1.0,0.5,0.3094419431897414,0.11330122450670986,27.0,15.0,12.0,0.5555555555555556,1.66664617283586,0.11483139965909646,8.0,2.0,6.0,0.25,0.7134964351463292,0.11400072431675648,67.0,34.0,33.0,0.5074626865671642,,,,0.0,160040.0,160043.0,160086.0,160090.0,160172.0,160198.0,160214.0,160222.0,160478.0,160498.0
150,150,161093.77963201722,3.683894761770211,-0.09668292866503463,161146.5753390999,-0.6127118332274966,0.33242885573351694,161185.54638215917,1.762328592566123,10.39698876410405,161222.27516822968,-0.5923563743397329,0.34763921195445047,161496.42465846843,0.6357439167769585,2.5479654008640567,0.6970624382148273,52.0,50.0,78.0,284.0,362.0,2.0,1053.0,1006.0,2.0,1.0,1.0,0.5,0.22851544579053645,0.11242649871702437,3.0,2.0,1.0,0.6666666666666666,0.04366659391361949,0.11242649871702437,27.0,13.0,14.0,0.48148148148148145,1.662709256200695,0.11242649871702437,2.0,1.0,1.0,0.5,0.5216117304102437,0.11242649871702437,12.0,1.0,11.0,0.08333333333333333,,,,0.0,161093.0,161095.0,161145.0,161148.0,161173.0,161199.0,161221.0,161223.0,161495.0,161507.0
151,151,162050.34564643074,0.3005889428964423,1.4350403527195934,162123.2752499024,-0.2847619164929618,0.9186312799098394,162185.4437611714,1.7678416201191829,10.73790271799699,162219.57534661292,-0.29382593183669997,2.547965398180131,162492.0959308017,0.5693117503959253,30.575584810368614,0.8617560827427219,73.0,70.0,101.0,287.0,388.0,3.0,956.0,997.0,3.0,1.0,2.0,0.3333333333333333,0.31947085041655554,0.1113381150266757,3.0,1.0,2.0,0.3333333333333333,0.23357900476005483,0.112201094226462,28.0,13.0,15.0,0.4642857142857143,1.7680448748975048,0.11176734360672937,4.0,1.0,3.0,0.25,0.5394058238952303,0.1112803197742041,52.0,23.0,29.0,0.4423076923076923,,,,0.0,162049.0,162052.0,162122.0,162125.0,162172.0,162200.0,162219.0,162223.0,162475.0,162510.0
152,152,162915.9244054013,0.2869067939179599,0.5726254336598869,163086.08997681833,-0.8640905388769913,0.06413936952778075,163185.23589022667,1.7902294727764145,11.020285674872367,163214.63261159143,-0.40468134056282046,2.5479654008640567,163482.8493212347,0.7048949656296712,5.095930801728113,0.7258374328920841,170.0,168.0,133.0,270.0,403.0,2.0,866.0,1000.0,2.0,1.0,1.0,0.5,0.29495015336003,0.11012979977926453,2.0,1.0,1.0,0.5,0.3779207627762675,0.11428488328595642,28.0,14.0,14.0,0.5,1.7785296298036746,0.11414316210984607,4.0,1.0,3.0,0.25,0.8536311402174779,0.11461465086600771,38.0,18.0,20.0,0.47368421052631576,,,,0.0,162915.0,162917.0,163085.0,163087.0,163171.0,163199.0,163214.0,163218.0,163480.0,163488.0
153,153,164025.08935980298,0.29586273986409667,0.7903063757963439,164116.5753390999,-0.43855547406366197,0.4029126947405772,164185.7247366289,1.756718905810769,10.991237102258006,164214.4246609001,-0.3595757748982991,2.5479654008640567,164490.84926452578,0.7415398267872412,5.095930801728113,0.7235102449698924,90.0,86.0,102.0,277.0,379.0,4.0,1109.0,997.0,4.0,2.0,2.0,0.5,0.39078990468763186,0.11264262943647707,3.0,2.0,1.0,0.6666666666666666,0.27814357238423704,0.11291095389417381,29.0,14.0,15.0,0.4827586206896552,1.7725966697972069,0.11581192708179518,3.0,2.0,1.0,0.6666666666666666,0.7706200789503561,0.11374971943512709,38.0,9.0,29.0,0.23684210526315788,,,,0.0,164023.0,164027.0,164113.0,164118.0,164172.0,164200.0,164212.0,164215.0,164482.0,164492.0
154,154,165039.33715598466,0.21989716540237672,1.2882841417734636,165147.4246609001,-0.42651682577677924,0.5871021639153795,165185.63282152917,1.7188429612175906,10.69894274784427,165215.4246609001,-0.30196020084939673,2.5479654008640567,165498.98570370913,0.6596507389206451,7.64389620259217,0.7499277119800398,109.0,104.0,73.0,285.0,358.0,5.0,1015.0,1000.0,5.0,2.0,3.0,0.4,0.13247059087866112,0.10958150177730182,3.0,1.0,2.0,0.3333333333333333,0.19819039885377487,0.10975171451093549,30.0,15.0,15.0,0.5,1.6072705031429273,0.10922569882331667,5.0,1.0,4.0,0.2,0.7591902338963668,0.11003012218912948,53.0,33.0,20.0,0.6226415094339622,,,,0.0,165037.0,165042.0,165146.0,165149.0,165172.0,165199.0,165214.0,165219.0,165495.0,165504.0
155,155,166041.3662577979,0.4849796318152059,0.3160050806762889,166144.5753390999,-0.49708703650199343,0.4190887290897521,166188.02737369903,1.7524138040270212,10.221629475938725,166226.00992051413,-0.37868489395910143,0.6550328102260305,166493.9960543376,0.5309998036950668,25.47965400864057,0.823990710475036,103.0,101.0,84.0,284.0,368.0,2.0,1001.0,1008.0,2.0,1.0,1.0,0.5,0.21675569138335055,0.11916043232442917,3.0,2.0,1.0,0.6666666666666666,0.13780860022417346,0.11907296617579677,25.0,15.0,10.0,0.6,1.6588017836861473,0.11746112104493385,2.0,1.0,1.0,0.5,0.3466524327622367,0.1207515657151969,71.0,42.0,29.0,0.5915492957746479,,,,0.0,166040.0,166042.0,166143.0,166146.0,166173.0,166198.0,166225.0,166227.0,166480.0,166511.0
156,156,167043.42042114545,1.3827980879695043,0.24705145461101022,167142.42137316242,-0.5714483619561643,0.2944765676751296,167185.27176918744,1.7847182555747878,10.97606325314826,167214.5753390999,-0.41679661736487983,2.5479654008640567,167484.945252602,0.517081087168234,35.67151561209577,0.8715912089612361,99.0,97.0,76.0,276.0,352.0,2.0,1002.0,992.0,2.0,1.0,1.0,0.5,0.3129172250311793,0.11000243747849711,2.0,1.0,1.0,0.5,0.22282159913950278,0.11106000947174618,29.0,15.0,14.0,0.5172413793103449,1.7168874635327167,0.11060181886928562,3.0,1.0,2.0,0.3333333333333333,0.8571225504837223,0.11246020608611158,40.0,20.0,20.0,0.5,,,,0.0,167042.0,167044.0,167141.0,167143.0,167172.0,167198.0,167214.0,167217.0,167465.0,167493.0
157,157,169038.41739635568,0.2091681366133369,1.90731504533667,169111.27845382405,-0.32881116970876745,0.007150950343434936,169185.059569513,1.7918694604580883,11.032795362207468,169216.26193773944,-0.3880519397058497,2.547949355365823,169489.5439564032,0.6356289347942202,15.286520471795628,0.8179273277007019,74.0,70.0,108.0,275.0,383.0,4.0,1995.0,2002.0,4.0,2.0,2.0,0.5,0.4522518465796892,0.10875748333307693,2.0,1.0,1.0,0.5,0.23830949232922807,0.11414264268170644,28.0,13.0,15.0,0.4642857142857143,1.837696513807134,0.11205483865704025,3.0,1.0,2.0,0.3333333333333333,0.6282186183755173,0.11460287923823254,62.0,31.0,31.0,0.5,,,,0.0,169036.0,169040.0,169110.0,169112.0,169172.0,169200.0,169215.0,169218.0,169478.0,169493.0
158,158,170044.67405647572,0.16844855126698566,2.5479654008640567,170100.4246609001,-0.25841832687921384,0.8753407546925578,170185.33018764987,1.7849437518449371,10.607641559127089,170221.5753390999,-0.42918708344571416,2.5479654008640567,170504.7809834355,0.6610300272188304,2.5479654008640567,0.7066196805385212,55.0,53.0,124.0,283.0,407.0,2.0,1007.0,1000.0,2.0,1.0,1.0,0.5,0.3735232726979417,0.11485498139213259,4.0,1.0,3.0,0.25,0.20275239029493786,0.11485498139213259,27.0,12.0,15.0,0.4444444444444444,1.6530042299968528,0.11485498139213259,6.0,5.0,1.0,0.8333333333333334,0.5665934027122383,0.11485498139213259,6.0,5.0,1.0,0.8333333333333334,,,,0.0,170044.0,170046.0,170099.0,170103.0,170173.0,170200.0,170217.0,170223.0,170500.0,170506.0
159,159,171038.41097411144,0.4276502792280702,0.39486124069086515,171143.05593714287,-0.5078394440478613,-0.0944488078271917,171185.79386866777,1.703116688330545,11.477459508144012,171216.7260172996,-0.3339979043284791,7.468513280894475,171499.02737369903,0.5780320989256584,17.8357578060484,0.8333099147397849,105.0,102.0,79.0,288.0,367.0,3.0,993.0,999.0,3.0,1.0,2.0,0.3333333333333333,0.3597126963176186,0.11495908733039739,2.0,1.0,1.0,0.5,0.40018620693320595,0.1142284337373944,27.0,13.0,14.0,0.48148148148148145,1.478933130758251,0.11539048168314134,8.0,4.0,4.0,0.5,0.6075857635821569,0.11449943553232413,72.0,48.0,24.0,0.6666666666666666,,,,0.0,171037.0,171040.0,171142.0,171144.0,171173.0,171199.0,171213.0,171221.0,171473.0,171509.0
160,160,172034.85526943984,0.42408663463545826,0.3683287019828798,172142.7732440744,-0.31503680274460355,0.47740171839108064,172185.516396434,1.772395236319434,11.196605443975518,172216.15067819975,-0.320800231416008,5.095930126866683,172486.67126990156,0.582691056938644,28.027619409504627,0.8723988154927826,108.0,106.0,78.0,285.0,363.0,2.0,997.0,998.0,2.0,1.0,1.0,0.5,0.37701095234011156,0.10836733669416533,2.0,1.0,1.0,0.5,0.24458199257490656,0.11179908812774028,28.0,14.0,14.0,0.5,1.6338302500152464,0.11610845234111353,7.0,1.0,6.0,0.14285714285714285,0.6271211255216335,0.1237936561119898,34.0,16.0,18.0,0.47058823529411764,,,,0.0,172034.0,172036.0,172142.0,172144.0,172172.0,172200.0,172215.0,172220.0,172471.0,172505.0
161,161,173051.94793232245,0.31979165970239004,0.6438189485922937,173124.42437579102,-0.7243397705757993,0.29748905792767194,173185.53584692793,1.7401314583643122,10.327532408337746,173219.57636295405,-0.35321177421957894,2.547897351385965,173484.69864360054,0.6050861586977309,10.191861603456195,0.7572499557453415,72.0,70.0,98.0,266.0,364.0,2.0,1017.0,1001.0,2.0,1.0,1.0,0.5,0.3333915620290142,0.11317289388143267,2.0,1.0,1.0,0.5,0.1179407302138519,0.11317289388143267,27.0,14.0,13.0,0.5185185185185185,1.6934201452155009,0.11317289388143267,2.0,1.0,1.0,0.5,0.744994626007385,0.11317289388143267,50.0,13.0,37.0,0.26,,,,0.0,173051.0,173053.0,173123.0,173125.0,173172.0,173199.0,173219.0,173221.0,173478.0,173487.0
162,162,174039.57752975842,0.8939618220669072,0.2700737211859753,174126.12788065447,-0.18389233329299534,0.6485808229021451,174185.4354687545,1.8010373535722226,11.186209506421,174212.4246609001,-0.3575996372360651,2.547965400855377,174503.15067819975,0.6812022319974833,5.095930801728113,0.7361216589630553,86.0,84.0,88.0,293.0,381.0,2.0,988.0,1002.0,2.0,1.0,1.0,0.5,0.3309338624681042,0.11323163459880294,2.0,1.0,1.0,0.5,0.25285929453823547,0.12021062876114978,24.0,11.0,13.0,0.4583333333333333,2.0045743416004576,0.11518674597939654,3.0,2.0,1.0,0.6666666666666666,0.9684416676041002,0.12030487919874133,64.0,48.0,16.0,0.75,,,,0.0,174039.0,174041.0,174125.0,174127.0,174174.0,174198.0,174210.0,174213.0,174501.0,174506.0
163,163,174852.6316329931,0.4382159891555083,0.02918422771112006,175100.8851033618,-0.2633001212607106,0.6027663533977162,175185.86368657096,1.8299789570081861,10.557910200925528,175224.17901860422,-0.2624350097528565,1.4181672452872864,175493.60949678096,0.6286397499222866,20.378741907407466,0.8217124000293246,248.0,245.0,126.0,279.0,405.0,3.0,813.0,999.0,2.0,1.0,1.0,0.5,0.28092961910440173,0.11682154055652436,2.0,1.0,1.0,0.5,0.16103985522954045,0.11519117029759096,25.0,12.0,13.0,0.48,1.884872199252966,0.11606940835241697,3.0,1.0,2.0,0.3333333333333333,0.31722260464429697,0.11676968989315949,49.0,35.0,14.0,0.7142857142857143,,,,0.0,174852.0,174855.0,175100.0,175102.0,175174.0,175199.0,175223.0,175226.0,175462.0,175505.0
164,164,175915.9591770607,0.3158787083185874,0.488626944208618,176087.0186398041,-0.2094584637213499,-0.0988297684800156,176185.53907193133,1.7853626448580526,10.754481071219326,176214.4246609001,-0.4228449745309148,2.5479652485107063,176482.39728720114,0.6361822000128317,20.383722769148623,0.8267944532917743,171.0,169.0,135.0,271.0,406.0,2.0,1063.0,1003.0,2.0,1.0,1.0,0.5,0.38044434406199185,0.11906571545236246,2.0,1.0,1.0,0.5,0.33526024600500337,0.12111421251127834,27.0,14.0,13.0,0.5185185185185185,1.7983282246371548,0.11497495739824184,8.0,1.0,7.0,0.125,0.6745875848608139,0.11618627901270169,57.0,17.0,40.0,0.2982456140350877,,,,0.0,175915.0,175917.0,176086.0,176088.0,176173.0,176199.0,176213.0,176221.0,176471.0,176492.0
165,165,178140.93396267746,0.3367303655746249,-0.1251271877556195,178142.5753391085,-0.45154235952389404,0.3589314655153282,178185.53628680325,1.744320600049865,10.400786387806843,178215.42466089883,-0.4288300908858898,2.5479654008640567,178499.7260172996,0.5786246141764995,7.64389620259217,0.7462055691156819,0.0,-2.0,84.0,284.0,368.0,2.0,2225.0,1997.0,2.0,1.0,1.0,0.5,0.2694941709059291,0.11079139723158664,3.0,2.0,1.0,0.6666666666666666,0.18793802060451065,0.11079139723158664,28.0,14.0,14.0,0.5,1.785307267683309,0.11079139723158664,10.0,1.0,9.0,0.1,0.7158998621194729,0.11079139723158664,78.0,45.0,33.0,0.5769230769230769,,,,0.0,178140.0,178142.0,178140.0,178144.0,178172.0,178198.0,178214.0,178224.0,178498.0,178508.0
