,cycle,p_center,p_height,p_width,q_center,q_height,q_width,r_center,r_height,r_width,s_center,s_height,s_width,t_center,t_height,t_width,r_squared,pr_interval,pr_segment,qrs_duration,st_segment,qt_interval,p_duration,pp_interval,rr_interval,fwhm_p,rise_time_p,decay_time_p,rise_decay_symmetry_p,sharpness_deriv_p,sharpness_diff_p,fwhm_q,rise_time_q,decay_time_q,rise_decay_symmetry_q,sharpness_deriv_q,fwhm_r,rise_time_r,decay_time_r,rise_decay_symmetry_r,sharpness_deriv_r,sharpness_diff_r,fwhm_s,rise_time_s,decay_time_s,rise_decay_symmetry_s,sharpness_deriv_s,fwhm_t,rise_time_t,decay_time_t,rise_decay_symmetry_t,sharpness_deriv_t,sharpness_diff_t,Average_Heart_Rate,SDNN,RMSSD,NN50,p_on,p_off,q_on,q_off,r_on,r_off,s_on,s_off,t_on,t_off
0,0,0.0,0.0,0.0,0.0,0.0,0.0,0.0,0.0,0.0,0.0,0.0,0.0,0.0,0.0,0.0,0.0,0.0,0.0,0.0,0.0,0.0,0.0,0.0,0.0,0.0,0.0,0.0,0.0,0.0,0.0,0.0,0.0,0.0,0.0,0.0,0.0,0.0,0.0,0.0,0.0,0.0,0.0,0.0,0.0,0.0,0.0,0.0,0.0,0.0,0.0,0.0,0.0,59.99977663101689,350.54086179340766,514.0153867773475,53.0,,,,,,,,,,
1,1,0.0,0.0,0.0,0.0,0.0,0.0,0.0,0.0,0.0,0.0,0.0,0.0,0.0,0.0,0.0,0.0,0.0,0.0,0.0,0.0,0.0,0.0,0.0,0.0,0.0,0.0,0.0,0.0,0.0,0.0,0.0,0.0,0.0,0.0,0.0,0.0,0.0,0.0,0.0,0.0,0.0,0.0,0.0,0.0,0.0,0.0,0.0,0.0,0.0,0.0,0.0,0.0,,,,0.0,,1806.0,2142.0,2144.0,2175.0,2196.0,2216.0,2218.0,2500.0,2503.0
2,2,3041.1809007690986,7.310885762477459,-0.07802363694164412,3144.6240092206585,-1.3674206943542384,0.25596196132301435,3184.9726263010075,1.6817994525292634,10.612423152877229,3229.688799030542,-1.3821977124588538,0.2366894763896482,3482.5753390998566,0.575255720608267,2.5479654008640567,0.5248486382246682,106.0,102.0,87.0,253.0,340.0,4.0,,,2.0,1.0,1.0,0.5,0.47337461134864783,0.22959063393805076,2.0,1.0,1.0,0.5,0.5321431638788033,0.22961701298153123,26.0,10.0,16.0,0.38461538461538464,1.4966745364220388,0.23337536370957682,2.0,1.0,1.0,0.5,0.3604844128129779,0.23379713818184794,5.0,4.0,1.0,0.8,,,,0.0,3038.0,3042.0,3144.0,3146.0,3175.0,3197.0,3229.0,3231.0,3479.0,3484.0
3,3,4044.008610527006,0.59412424092592,0.6433528679178846,4135.424660900143,-0.3327829855016507,0.8630425137309929,4180.123304500719,1.662168841346454,12.102949340760517,4223.150678199713,-0.21664963396675235,5.095930801728113,4491.842151111522,0.7908326809014044,2.5479654008640567,0.47913937597884154,91.0,89.0,92.0,267.0,359.0,2.0,1003.0,996.0,2.0,1.0,1.0,0.5,0.6984043807643924,0.2287375132505445,3.0,1.0,2.0,0.3333333333333333,0.3315230840824984,0.22560466842659296,26.0,9.0,17.0,0.34615384615384615,2.0602634630786647,0.22321055155526717,2.0,1.0,1.0,0.5,0.17184648746319287,0.2244644299420071,4.0,3.0,1.0,0.75,,,,0.0,4043.0,4045.0,4134.0,4137.0,4173.0,4197.0,4220.0,4226.0,4489.0,4493.0
4,4,4833.642153737583,1.9243357741162832,0.24445794896559633,5143.389274625329,-1.9187682659094807,0.23997550455893019,5185.109324191724,1.7423731047220994,11.37254634108785,5311.918585609076,-0.5281827908825455,0.1235030128619971,5486.424660900143,0.7700389634461252,2.5479654008640567,0.5047014759857696,308.0,306.0,172.0,174.0,346.0,2.0,790.0,1007.0,2.0,1.0,1.0,0.5,0.5214015603815303,0.22612012501834783,2.0,1.0,1.0,0.5,0.4676276774596476,0.23528184763923754,29.0,15.0,14.0,0.5172413793103449,1.9735415463582546,0.23291939415207785,2.0,1.0,1.0,0.5,0.44432775381627787,0.23192757394362234,2.0,1.0,1.0,0.5,,,,0.0,4833.0,4835.0,5141.0,5144.0,5170.0,5199.0,5311.0,5313.0,5485.0,5487.0
5,5,6866.18679021029,231.1717663100778,-0.053366211959923214,7154.111073129632,-0.49190648092269285,0.7642015510000408,7186.05391847724,1.8665541800417602,9.909629698802044,7262.0397762554685,-0.6993093655934525,0.05815010327886445,7494.184707543315,0.7851688267980754,2.5479654008640567,0.5305129136350507,289.0,286.0,110.0,235.0,345.0,3.0,2032.0,2000.0,2.0,1.0,1.0,0.5,0.4415379733518304,0.22814884113844208,2.0,1.0,1.0,0.5,0.4945872444396385,0.22812297601001486,25.0,13.0,12.0,0.52,1.9993608332954458,0.23150103280796472,2.0,1.0,1.0,0.5,0.4361019881906637,0.22804643579542314,5.0,1.0,4.0,0.2,,,,0.0,6864.0,6867.0,7153.0,7155.0,7173.0,7198.0,7261.0,7263.0,7493.0,7498.0
6,6,8051.67672131058,1.0512211442328558,0.37884306118207095,8142.474017195107,-0.37132425313403633,0.018295772437540325,8184.547965400854,1.7895490376358163,10.751300727345905,8225.988977063987,-0.5331538091985851,1.1022347636825343,8495.751191508316,0.7061277136938201,15.287792405184321,0.6018925232257486,87.0,85.0,90.0,275.0,365.0,2.0,1186.0,997.0,2.0,1.0,1.0,0.5,0.5436932169019308,0.22654848766460484,5.0,2.0,3.0,0.4,0.46101076483285625,0.22654848766460484,27.0,14.0,13.0,0.5185185185185185,1.8834761766971835,0.22654848766460484,4.0,2.0,2.0,0.5,0.4980514058625003,0.22654848766460484,31.0,24.0,7.0,0.7741935483870968,,,,0.0,8051.0,8053.0,8138.0,8146.0,8176.0,8198.0,8224.0,8228.0,8490.0,8503.0
7,7,8855.248091368612,0.8855923324689355,0.5115889425032488,9120.692420897687,-217.57826567964182,0.08878023296917222,9185.60271279885,1.8082483504730493,10.908880403543812,9216.334922213024,-0.492244859262671,2.5479654008640567,9494.424660900142,0.8549895614331501,2.5479654008640567,0.5327416468567344,266.0,264.0,97.0,287.0,384.0,2.0,803.0,1007.0,2.0,1.0,1.0,0.5,0.947154541113752,0.213485934852362,2.0,1.0,1.0,0.5,0.628641610626703,0.213485934852362,24.0,13.0,11.0,0.5416666666666666,1.895502497895357,0.213485934852362,2.0,1.0,1.0,0.5,1.2144010299737318,0.213485934852362,11.0,1.0,10.0,0.09090909090909091,,,,0.0,8854.0,8856.0,9120.0,9122.0,9173.0,9197.0,9215.0,9217.0,9493.0,9504.0
8,8,9870.737829381138,1.0615654775239713,0.25408987751828654,10151.303429351112,-0.35621051524027614,1.8327422974904393,10185.530322398814,1.7151970405221069,10.366741321539648,10211.193438647391,-0.6040380404768355,0.6273077119930812,10509.905536012728,0.8552966589127893,1.0344708755708971,0.5159932678870459,280.0,278.0,62.0,299.0,361.0,2.0,1016.0,995.0,2.0,1.0,1.0,0.5,0.6304550750592234,0.21641977398163845,2.0,1.0,1.0,0.5,0.4042067155345445,0.21684198156586906,26.0,11.0,15.0,0.4230769230769231,1.2512835138054512,0.21684198156586906,2.0,1.0,1.0,0.5,1.112918389296608,0.21684198156586906,2.0,1.0,1.0,0.5,,,,0.0,9870.0,9872.0,10150.0,10152.0,10175.0,10192.0,10210.0,10212.0,10509.0,10511.0
9,9,11052.958599569072,0.5770824347416275,0.19461479707576437,11127.575339099909,-0.7657387366884757,0.4900462157044158,11186.062381940166,1.7170261298160994,10.118247689317645,11214.424660900031,-0.579401518007206,2.5479654008640504,11516.307379296071,1.4257726934843096,0.3467231671745862,0.49191675980412697,74.0,72.0,89.0,302.0,391.0,2.0,1182.0,1001.0,2.0,1.0,1.0,0.5,0.5899886708685516,0.24004298707082905,3.0,2.0,1.0,0.6666666666666666,0.5367589902508936,0.23662671418484052,20.0,11.0,9.0,0.55,1.8584039853050451,0.2394036648511478,3.0,2.0,1.0,0.6666666666666666,1.1651830264778358,0.2378695954175539,2.0,1.0,1.0,0.5,,,,0.0,11052.0,11054.0,11126.0,11129.0,11178.0,11195.0,11212.0,11215.0,11515.0,11517.0
10,10,11847.575339112098,1.6661831785543184,0.3510807156198218,12151.422872205701,-1.7842472420384754,0.2651417299244322,12185.977793078016,1.6881447650861805,10.841973444305493,12215.984644012231,-0.5340572556673355,4.212777699562449,12475.150678199714,0.6758599347258335,5.095930801728113,0.5610416807922745,304.0,301.0,68.0,260.0,328.0,3.0,795.0,999.0,3.0,2.0,1.0,0.6666666666666666,0.609562099788967,0.2250724165937916,2.0,1.0,1.0,0.5,0.40232077302343383,0.22230532508725231,25.0,14.0,11.0,0.56,1.8139545635592427,0.22263641739477283,4.0,2.0,2.0,0.5,1.445022961740781,0.22408487541607916,10.0,7.0,3.0,0.7,,,,0.0,11846.0,11849.0,12150.0,12152.0,12172.0,12196.0,12214.0,12218.0,12474.0,12478.0
11,11,12750.5771605401,1.655345313533855,0.2909587448802745,13120.40106713534,-1.355773053169459,0.2695313264885887,13184.887508877136,1.8134420024979394,10.507699204806137,13267.575339099858,-0.4488230817999998,1.4867281342582195,13457.597546426363,1.7756097636820927,0.3056058028377292,0.5366846786874809,368.0,366.0,151.0,190.0,341.0,2.0,903.0,1001.0,2.0,1.0,1.0,0.5,0.5140807588544121,0.21310821340454147,2.0,1.0,1.0,0.5,0.5665807351040186,0.21916158984014522,23.0,12.0,11.0,0.5217391304347826,2.237717119935845,0.21730061679950832,2.0,1.0,1.0,0.5,0.5052575607795782,0.21465732288432798,2.0,1.0,1.0,0.5,,,,0.0,12750.0,12752.0,13118.0,13121.0,13173.0,13196.0,13267.0,13269.0,13457.0,13459.0
12,12,14076.378093598385,1.9423496816807302,0.2621760092316519,14155.310591566054,-0.6150542249438073,-0.024232325593467885,14184.997595734996,1.7642062273896821,10.505401091369842,14227.890639129586,-0.6519271601280149,0.7717388368367644,14466.424660900142,0.4876489094366834,2.5479654008640567,0.5067693474915334,78.0,76.0,76.0,238.0,314.0,2.0,1325.0,998.0,2.0,1.0,1.0,0.5,0.7600226993287084,0.23277319939766988,2.0,1.0,1.0,0.5,0.1059945810262582,0.22890251642569043,17.0,13.0,4.0,0.7647058823529411,1.8907734589977574,0.22887632905056957,2.0,1.0,1.0,0.5,0.6168202385822994,0.22638915215268426,3.0,2.0,1.0,0.6666666666666666,,,,0.0,14075.0,14077.0,14153.0,14156.0,14172.0,14189.0,14227.0,14229.0,14464.0,14467.0
13,13,15798.055294425627,0.6196226304926395,0.10346506596898959,16142.422910300196,-2.460591382287444,0.2481658200594607,16184.972626301007,1.9036521493699905,10.456711811169615,16218.988602470834,-0.556414419063541,0.7431195459504248,16491.032923460505,0.8156853065801992,2.5479654008640567,0.559899365042627,344.0,342.0,79.0,272.0,351.0,2.0,1722.0,1999.0,2.0,1.0,1.0,0.5,0.3367761903177752,0.23840016788786839,2.0,1.0,1.0,0.5,0.7366472828134749,0.21223711444886417,26.0,11.0,15.0,0.4230769230769231,1.9867089631207322,0.21984041607665028,2.0,1.0,1.0,0.5,0.7540773748862114,0.2219509851207847,5.0,4.0,1.0,0.8,,,,0.0,15797.0,15799.0,16141.0,16143.0,16175.0,16198.0,16218.0,16220.0,16487.0,16492.0
14,14,16777.57560069197,1.8125988663444204,0.2666333641493141,17142.8361216589,-0.4732722866698592,0.006302377570001183,17185.22560194273,1.753759406721475,11.161409948148368,17290.942393131852,-1.9681750287749307,-0.036937584256657906,17487.424660900142,0.8284264557171593,2.5479654008640567,0.545422140481021,365.0,363.0,150.0,199.0,349.0,2.0,980.0,1005.0,2.0,1.0,1.0,0.5,0.379559498577848,0.22623596917570765,2.0,1.0,1.0,0.5,0.4401035916980264,0.22395671879596293,29.0,15.0,14.0,0.5172413793103449,1.773129737253436,0.22395671879596293,2.0,1.0,1.0,0.5,0.8543138166971411,0.22395671879596293,5.0,1.0,4.0,0.2,,,,0.0,16777.0,16779.0,17142.0,17145.0,17176.0,17199.0,17290.0,17292.0,17486.0,17491.0
15,15,17979.416223851622,2.113363089539723,0.24375509125101008,18142.42448807038,-1.9801107689904025,0.24471886412268642,18183.972626301005,1.7376767830458806,11.062813161500276,18247.598426184573,-2.38214475380961,0.24929347680896524,18479.424643381804,0.6193392537355231,2.5479654008640567,0.5416851119484146,163.0,161.0,108.0,231.0,339.0,2.0,1201.0,994.0,2.0,1.0,1.0,0.5,0.2583676840541689,0.2323324897837335,2.0,1.0,1.0,0.5,0.6009695462246483,0.2323324897837335,28.0,13.0,15.0,0.4642857142857143,1.5190254538483856,0.2323324897837335,2.0,1.0,1.0,0.5,0.7644634016131856,0.2323324897837335,2.0,1.0,1.0,0.5,,,,0.0,17978.0,17980.0,18141.0,18143.0,18174.0,18195.0,18247.0,18249.0,18478.0,18480.0
16,16,18889.957656647042,0.5861169029311367,0.07655507216468387,19142.220598632604,-0.5638002402810568,0.6837394526085038,19186.23845928824,1.7072786026258182,10.800119642869722,19216.42466089903,-0.4970224365197438,2.547965400774186,19483.593067840557,1.021960532119826,0.7644696991296849,0.5183687947047569,252.0,249.0,76.0,268.0,344.0,3.0,911.0,1005.0,2.0,1.0,1.0,0.5,0.37534437806147364,0.2202932845153578,3.0,1.0,2.0,0.3333333333333333,0.6960001173181349,0.22146945149076833,18.0,10.0,8.0,0.5555555555555556,1.878730109549344,0.21730810656187857,3.0,2.0,1.0,0.6666666666666666,0.780699800605608,0.22146945149076833,3.0,2.0,1.0,0.6666666666666666,,,,0.0,18889.0,18892.0,19141.0,19144.0,19176.0,19194.0,19214.0,19217.0,19482.0,19485.0
17,17,21000.575374646756,2.338400996814463,0.23881662480527835,21143.677479317623,-0.7109054821071555,0.48248523718113495,21186.006578664696,1.9423710407674957,10.972744025537219,21236.424660900142,-1.015451733826503,0.3626344600337836,21480.807989501944,1.007019893685244,2.5479654008640567,0.5519602034670642,143.0,141.0,95.0,244.0,339.0,2.0,2111.0,1999.0,2.0,1.0,1.0,0.5,0.7908407024356408,0.2205591033973988,2.0,1.0,1.0,0.5,0.5962023050149168,0.22252270498182888,27.0,12.0,15.0,0.4444444444444444,1.9895708704104058,0.2210571562330866,3.0,1.0,2.0,0.3333333333333333,0.5691829776988448,0.22048605988161377,3.0,2.0,1.0,0.6666666666666666,,,,0.0,21000.0,21002.0,21143.0,21145.0,21174.0,21199.0,21235.0,21238.0,21479.0,21482.0
18,18,22035.575339099858,0.8110680654409668,0.4652187028366727,22145.592268487417,-1.8073913890646232,0.2569383317491039,22186.45203459914,1.8072221312478713,11.278081093657041,22214.424660900142,-0.5470416758619309,2.5479654008640567,22482.99682697925,0.7708253542275384,2.5479654008640567,0.5382062610362883,111.0,108.0,71.0,268.0,339.0,3.0,1035.0,1004.0,3.0,2.0,1.0,0.6666666666666666,0.4693748268660809,0.22450479752696068,2.0,1.0,1.0,0.5,0.6265493726448353,0.2270268450978015,24.0,15.0,9.0,0.625,1.5718884194723937,0.2265127053081149,3.0,1.0,2.0,0.3333333333333333,0.9524012558331096,0.22497165330183547,2.0,1.0,1.0,0.5,,,,0.0,22034.0,22037.0,22145.0,22147.0,22172.0,22195.0,22213.0,22216.0,22482.0,22484.0
19,19,22882.136286607227,0.7341956551436617,0.5708200637180363,23119.97854640149,-0.5730847722750292,0.5334862379266139,23185.422611528153,1.859448691540467,10.040093276739587,23253.13188280408,-0.4569618285127846,0.4288840440231657,23496.424660900142,0.8270151846034554,2.547965400864055,0.5310393668189766,238.0,236.0,135.0,249.0,384.0,2.0,846.0,995.0,2.0,1.0,1.0,0.5,0.7070386699982798,0.2236677898856291,2.0,1.0,1.0,0.5,0.5188782537972931,0.21534475574547052,26.0,11.0,15.0,0.4230769230769231,1.6228021738472136,0.2240804834596858,2.0,1.0,1.0,0.5,0.5226860629201102,0.22409146980890432,8.0,1.0,7.0,0.125,,,,0.0,22881.0,22883.0,23119.0,23121.0,23175.0,23196.0,23252.0,23254.0,23495.0,23503.0
20,20,23996.575356384164,3.813365174478004,0.2306044805684498,24140.06610009184,-0.7925164423649442,-0.10583904638414307,24186.317087339787,1.7294191544963815,10.692153374474907,24216.544693340307,-0.3889098159070837,4.227963853473261,24485.93000600198,0.9763589925568696,0.6151155637637246,0.5202431005199596,143.0,141.0,80.0,268.0,348.0,2.0,1115.0,1004.0,2.0,1.0,1.0,0.5,0.4980313366177508,0.25085880196844407,2.0,1.0,1.0,0.5,0.6436239498818388,0.24268776007107146,23.0,10.0,13.0,0.43478260869565216,1.7765008958344488,0.24201773764021806,4.0,2.0,2.0,0.5,0.690389341203751,0.23927736748532888,2.0,1.0,1.0,0.5,,,,0.0,23996.0,23998.0,24139.0,24141.0,24176.0,24199.0,24215.0,24219.0,24485.0,24487.0
21,21,25050.925722466985,1.0616585163596501,0.0649934267719114,25140.857707309697,-0.49246679892675455,0.6353929134180062,25185.45203459914,1.7543845326745917,10.17470334530973,25215.575339501986,-0.43748251787945464,2.5479654008640567,25503.0483574634,0.8501328065109366,0.5940967261550391,0.5201799792846197,90.0,88.0,77.0,287.0,364.0,2.0,1054.0,1000.0,2.0,1.0,1.0,0.5,0.5347764894569049,0.22364286658872734,2.0,1.0,1.0,0.5,0.41226620022747507,0.2163509553968304,21.0,12.0,9.0,0.5714285714285714,1.9855302660784058,0.22323409131391353,2.0,1.0,1.0,0.5,0.7199206347751885,0.2259602896212514,2.0,1.0,1.0,0.5,,,,0.0,25050.0,25052.0,25140.0,25142.0,25174.0,25194.0,25215.0,25217.0,25502.0,25504.0
22,22,25894.67104027838,1.3784374180233532,0.257744438769214,26146.626034211564,-0.526288660921182,0.9780720478271573,26185.447986210846,1.726532059750778,11.05909876689711,26210.15174642113,-0.9227721902606887,0.49218513045342516,26501.72601729957,0.7574112144194501,7.64389620259217,0.5403598982785657,251.0,249.0,66.0,295.0,361.0,2.0,844.0,998.0,2.0,1.0,1.0,0.5,0.3589941547485955,0.22999959618360352,4.0,2.0,2.0,0.5,0.3886223887146826,0.22769892672097838,31.0,14.0,17.0,0.45161290322580644,1.7243350082153892,0.22789613966491332,2.0,1.0,1.0,0.5,1.431607354811209,0.22738907298084876,27.0,23.0,4.0,0.8518518518518519,,,,0.0,25894.0,25896.0,26145.0,26150.0,26178.0,26198.0,26209.0,26211.0,26500.0,26506.0
23,23,26846.602382852885,1.9376733365288568,0.25999503062589246,27150.575339099858,-1.8826700098870455,0.2638294864017919,27185.178713327216,1.8695707346132722,10.167756518634146,27215.424660900142,-0.5607260713831383,2.5479654008640567,27513.05113302868,0.6891028548598405,2.5479654008640567,0.5490099794324411,304.0,302.0,71.0,293.0,364.0,2.0,952.0,1002.0,2.0,1.0,1.0,0.5,0.5767031876558575,0.23321595866388148,2.0,1.0,1.0,0.5,0.2676322421009562,0.2269372340979625,25.0,11.0,14.0,0.44,1.9642540077117256,0.22895219817282603,7.0,1.0,6.0,0.14285714285714285,0.9047651683988067,0.22653040416782783,2.0,1.0,1.0,0.5,,,,0.0,26846.0,26848.0,27150.0,27152.0,27174.0,27196.0,27214.0,27221.0,27512.0,27514.0
24,24,27943.79532260335,16703.23878219491,-0.045282410476243574,28140.6228929381,-1.9366591078780235,0.26422517019870584,28186.178051898707,1.8227178895038874,10.518415669175779,28217.994405794634,-0.5978861165664414,0.6849933426365652,28482.849321800266,0.8003059663432998,5.095930801728113,0.5703297586115922,197.0,194.0,79.0,274.0,353.0,3.0,1097.0,1002.0,2.0,1.0,1.0,0.5,0.5521662909684941,0.21427829873625243,2.0,1.0,1.0,0.5,0.5393923108862589,0.20919444691203828,26.0,13.0,13.0,0.5,1.6695896407417352,0.21103814535831117,2.0,1.0,1.0,0.5,0.9644027083585387,0.21229428061985867,17.0,7.0,10.0,0.4117647058823529,,,,0.0,27943.0,27946.0,28140.0,28142.0,28173.0,28199.0,28217.0,28219.0,28480.0,28493.0
25,25,28790.983998363474,0.5193015760310189,-0.11692234252937331,29076.85900506804,-0.6259999120356459,0.6731523572031702,29185.23497120998,1.807809833944579,9.965961599877362,29210.83987751489,-0.7704236264671422,0.530705836415266,29494.204421926155,0.9308567579622109,0.8072228330407967,0.5377101647805282,285.0,283.0,137.0,284.0,421.0,2.0,847.0,995.0,2.0,1.0,1.0,0.5,0.556241833805404,0.22122940906939761,3.0,2.0,1.0,0.6666666666666666,0.5034131024140509,0.21959680940190512,25.0,14.0,11.0,0.56,2.146251410535169,0.21959680940190512,2.0,1.0,1.0,0.5,1.2695594778366237,0.21959680940190512,3.0,1.0,2.0,0.3333333333333333,,,,0.0,28790.0,28792.0,29075.0,29078.0,29171.0,29196.0,29210.0,29212.0,29493.0,29496.0
26,26,30866.930304868492,0.9756152921795469,0.05767615119038014,31117.20300126108,-0.6411561374679482,0.5132961672293892,31185.02289060135,1.753410661971221,10.035716241218745,31216.424660900142,-0.5993152980899312,2.5479654008640567,31489.575339099858,0.5751323997145388,2.5479652533284667,0.5594251290148887,250.0,248.0,101.0,274.0,375.0,2.0,2076.0,2001.0,2.0,1.0,1.0,0.5,0.3716096788924056,0.21275703804143498,2.0,1.0,1.0,0.5,0.47812890960594506,0.21422162751779,23.0,12.0,11.0,0.5217391304347826,1.9015464594281204,0.21422162751779,2.0,1.0,1.0,0.5,1.07010403825292,0.21422162751779,3.0,2.0,1.0,0.6666666666666666,,,,0.0,30866.0,30868.0,31116.0,31118.0,31174.0,31196.0,31215.0,31217.0,31488.0,31491.0
27,27,31991.923255609014,0.7779469872684349,0.10930022792973185,32100.086870228988,-0.5679541601792298,-0.10145508423957995,32185.01126352003,1.7682548501570534,11.246830751870412,32216.424660900142,-0.47651346728775873,2.5479652843021743,32501.575339099858,0.7629698435414469,2.5479654008640567,0.5397107842576203,107.0,104.0,121.0,284.0,405.0,3.0,1125.0,996.0,2.0,1.0,1.0,0.5,0.6467202655538686,0.21652097369325266,2.0,1.0,1.0,0.5,0.3727246766191216,0.21734567971147106,25.0,12.0,13.0,0.48,1.7935269972582344,0.22252326486653043,4.0,1.0,3.0,0.25,1.0297173893617637,0.22446690719224818,2.0,1.0,1.0,0.5,,,,0.0,31991.0,31994.0,32098.0,32101.0,32173.0,32198.0,32215.0,32219.0,32501.0,32503.0
28,28,32977.361016245355,1.1888433332617794,0.33039457225453345,33153.4236945938,-3.0584770476519476,0.22857308612263127,33185.227185297124,1.8157018568932501,10.767359784060563,33218.671999026104,-0.44859367543629347,2.5479654008640567,33492.575339099865,0.7067886107998826,2.547965400864056,0.5376965268269911,176.0,174.0,68.0,274.0,342.0,2.0,985.0,1006.0,2.0,1.0,1.0,0.5,0.6082247636576147,0.22222367521876282,2.0,1.0,1.0,0.5,0.3852222371687432,0.2346566169898087,24.0,11.0,13.0,0.4583333333333333,1.737272397598483,0.2315546052310461,2.0,1.0,1.0,0.5,0.6221066327035376,0.23642924134282658,2.0,1.0,1.0,0.5,,,,0.0,32976.0,32978.0,33152.0,33154.0,33177.0,33197.0,33218.0,33220.0,33492.0,33494.0
29,29,34064.367043040875,0.7045354590704633,0.4520500616853199,34136.36666187658,-1.1671757688427595,0.2851326668803582,34186.15890779025,1.837446600297089,10.276354211071823,34261.04755081261,-0.5355003502330514,0.6272728211816245,34487.42466090009,0.7207026906924836,2.5479654008640567,0.5336320432373766,72.0,69.0,127.0,229.0,356.0,3.0,1087.0,996.0,3.0,1.0,2.0,0.3333333333333333,0.32700346112176415,0.23117560740479104,2.0,1.0,1.0,0.5,0.548508008726466,0.22998791235691854,25.0,14.0,11.0,0.56,1.7425361848885839,0.22883606488570113,2.0,1.0,1.0,0.5,0.41771003046401617,0.22883606488570113,5.0,1.0,4.0,0.2,,,,0.0,34063.0,34066.0,34135.0,34137.0,34175.0,34197.0,34260.0,34262.0,34486.0,34491.0
30,30,35018.598346712555,0.5959215888758552,0.03065331419909817,35121.424660900135,-0.586167342090647,0.6321932363711473,35185.11635195015,1.7906621867125703,10.530814417878888,35261.24387537813,-1.2425344395256024,0.23737016011352532,35506.424660900135,0.7219978955226107,2.5479654008639594,0.5288649386182599,102.0,100.0,142.0,245.0,387.0,2.0,955.0,1000.0,2.0,1.0,1.0,0.5,0.6445095617397627,0.2267598581625948,3.0,1.0,2.0,0.3333333333333333,0.31255306659977905,0.2267598581625948,23.0,12.0,11.0,0.5217391304347826,1.6709129477573548,0.2267598581625948,2.0,1.0,1.0,0.5,1.081798608384506,0.2267598581625948,2.0,1.0,1.0,0.5,,,,0.0,35018.0,35020.0,35120.0,35123.0,35173.0,35194.0,35260.0,35262.0,35505.0,35507.0
31,31,36120.407330503396,1.529836138610013,0.27355782742600093,36152.093216193134,-19.733371370538755,0.033766202855323176,36188.45203459914,1.7022854694295995,10.913576286382662,36217.575339099865,-0.48330582181209464,2.5479654008640558,36475.849321800284,0.653583637312209,5.095930801728113,0.522523237665206,32.0,30.0,68.0,258.0,326.0,2.0,1101.0,1007.0,2.0,1.0,1.0,0.5,0.46206790606413656,0.2201817506337407,2.0,1.0,1.0,0.5,0.06649450554949687,0.22131546306639116,22.0,13.0,9.0,0.5909090909090909,1.8497397321637108,0.22134594259549287,2.0,1.0,1.0,0.5,1.055989508027599,0.22652103936876705,35.0,3.0,32.0,0.08571428571428572,,,,0.0,36119.0,36121.0,36151.0,36153.0,36176.0,36197.0,36217.0,36219.0,36473.0,36477.0
32,32,37058.60551944515,1.4001597301226316,0.26106904717509566,37152.90980844806,-0.6386579121027482,0.7696144916077757,37186.098926403625,1.6617302988538358,9.784847147701354,37224.66340301037,-0.7833012337901731,1.0612358953062238,37487.16388780005,0.7647945859737213,0.6452472118852793,0.5054247795580641,93.0,89.0,76.0,261.0,337.0,4.0,939.0,994.0,2.0,1.0,1.0,0.5,0.6796487109957774,0.24382556091938248,3.0,2.0,1.0,0.6666666666666666,0.40254214665649035,0.23782518848231343,29.0,15.0,14.0,0.5172413793103449,1.4995742621010795,0.24697496505983998,4.0,2.0,2.0,0.5,0.8831537425991559,0.24194561992115596,2.0,1.0,1.0,0.5,,,,0.0,37058.0,37062.0,37151.0,37154.0,37178.0,37200.0,37223.0,37227.0,37486.0,37488.0
33,33,39042.42424951527,2.616693701072552,0.26492819939659923,39103.741972648655,-3.1445152057944945,0.1437040609306076,39186.17805229782,1.7956920579555353,10.780958273590857,39224.36475982264,-0.8213556131521509,0.4752828594076772,39492.424660900135,0.7462533416181834,2.547965400401466,0.5261864255286544,62.0,60.0,123.0,267.0,390.0,2.0,1983.0,2005.0,2.0,1.0,1.0,0.5,0.6429185888627166,0.23210412487361096,2.0,1.0,1.0,0.5,0.7019644909486451,0.23210412487361096,24.0,11.0,13.0,0.4583333333333333,2.054773129386792,0.23210412487361096,3.0,1.0,2.0,0.3333333333333333,0.707445991793098,0.23210412487361096,2.0,1.0,1.0,0.5,,,,0.0,39041.0,39043.0,39103.0,39105.0,39175.0,39199.0,39223.0,39226.0,39491.0,39493.0
34,34,39869.82225487691,0.5695980334942097,0.5396061044402248,40116.424660900135,-0.7034859627429065,0.44150360315526693,40184.39728720114,1.6654179903396862,11.248013089856746,40225.105280168995,-0.4856844722303391,0.4627749461193292,40493.37926205694,0.6756314707447795,2.5479654008640567,0.5122195354679572,246.0,244.0,111.0,268.0,379.0,2.0,828.0,991.0,2.0,1.0,1.0,0.5,0.6014551082318275,0.22739775745780322,3.0,1.0,2.0,0.3333333333333333,0.09377458462717503,0.2261488126869388,23.0,11.0,12.0,0.4782608695652174,1.7999919123096235,0.2261488126869388,2.0,1.0,1.0,0.5,0.6655098177789385,0.2261488126869388,2.0,1.0,1.0,0.5,,,,0.0,39869.0,39871.0,40115.0,40118.0,40173.0,40196.0,40224.0,40226.0,40492.0,40494.0
35,35,40773.32301274332,0.9902460968177546,0.2725348708586155,41119.59381081273,-3.263637360878894,0.2307106850733698,41186.00775860547,1.7534768636941949,10.113296779570495,41270.42465784302,-1.4615814652801444,0.3249169328034234,41492.849321799644,0.6449295686250801,5.095930801722811,0.543037012094794,347.0,345.0,152.0,223.0,375.0,2.0,903.0,1006.0,2.0,1.0,1.0,0.5,0.4438043016352373,0.22685484475097378,2.0,1.0,1.0,0.5,0.8228623782964657,0.2302997379534809,24.0,11.0,13.0,0.4583333333333333,1.8677507584491413,0.2322680084064124,2.0,1.0,1.0,0.5,0.8805587872714034,0.22628053496000194,4.0,3.0,1.0,0.75,,,,0.0,40772.0,40774.0,41119.0,41121.0,41175.0,41198.0,41269.0,41271.0,41490.0,41494.0
36,36,42036.575339099865,0.7358774724689308,0.5811382013576886,42114.10490736683,-0.5027547027963576,0.48258329422936347,42185.39728720114,1.777600469938634,10.531477860939155,42222.76700492193,-0.4610818433050275,0.7475450313606158,42471.28678610114,0.6669725847566657,2.5479654008640567,0.5139481118859455,78.0,75.0,111.0,248.0,359.0,3.0,1264.0,995.0,3.0,2.0,1.0,0.6666666666666666,0.3934081604170708,0.2168118920817453,2.0,1.0,1.0,0.5,0.6470025596756857,0.2168118920817453,25.0,12.0,13.0,0.48,1.885042288165053,0.2168118920817453,3.0,2.0,1.0,0.6666666666666666,0.5134831478747248,0.2168118920817453,4.0,3.0,1.0,0.75,,,,0.0,42035.0,42038.0,42113.0,42115.0,42174.0,42194.0,42221.0,42224.0,42468.0,42472.0
37,37,43831.59822262395,2.909737901201732,0.21199778907443556,44092.952073183274,-0.5807933405112696,0.09137993500617564,44185.62460015541,1.7825206527286628,10.680056650634729,44281.575339099865,-0.7755061823277765,0.6306920161253455,44468.424657562675,0.5387913699202918,2.5479654008640567,0.540695637324601,261.0,259.0,191.0,186.0,377.0,2.0,1795.0,2003.0,2.0,1.0,1.0,0.5,0.24973601909400045,0.2066714291737113,2.0,1.0,1.0,0.5,0.27617938514076856,0.21995308291475574,22.0,13.0,9.0,0.5909090909090909,1.4782075613208252,0.23070189009999673,3.0,2.0,1.0,0.6666666666666666,0.49310264055831177,0.2210465088253673,2.0,1.0,1.0,0.5,,,,0.0,43831.0,43833.0,44092.0,44094.0,44175.0,44195.0,44280.0,44283.0,44467.0,44469.0
38,38,45066.84139793235,1.621333428699807,0.10962804663856131,45134.87086203645,-0.48404164227493,0.7774856769985867,45187.60271279886,1.780212524469374,10.359095136876022,45215.067082336296,-0.5900796596385642,2.1679898733872274,45482.575339099865,0.8109467149262459,2.5479654008640567,0.5238090522515074,67.0,65.0,85.0,266.0,351.0,2.0,1235.0,1006.0,2.0,1.0,1.0,0.5,0.4713825560360373,0.2353756456880921,3.0,2.0,1.0,0.6666666666666666,0.4480360944587667,0.2353756456880921,26.0,14.0,12.0,0.5384615384615384,1.5258350631840896,0.2353756456880921,6.0,3.0,3.0,0.5,0.9344561786713422,0.2353756456880921,2.0,1.0,1.0,0.5,,,,0.0,45066.0,45068.0,45133.0,45136.0,45174.0,45199.0,45212.0,45218.0,45482.0,45484.0
39,39,45931.80459070743,64223.20264693742,0.040156247373051505,46106.596892102025,-4.870719609085878,0.1931546005246346,46185.9728795258,1.7756992703687389,10.965182256551323,46211.01948184654,-0.5846263399022545,1.1313035597828605,46501.15067820087,0.6252737231975851,5.095930801728113,0.5421328215936543,175.0,173.0,107.0,292.0,399.0,2.0,865.0,994.0,2.0,1.0,1.0,0.5,0.38945413764872494,0.20828009703670908,2.0,1.0,1.0,0.5,0.4464514728640096,0.20808082696197205,30.0,14.0,16.0,0.4666666666666667,1.6414362424819227,0.21087775511430792,4.0,2.0,2.0,0.5,1.005573928797672,0.20951693897578236,13.0,9.0,4.0,0.6923076923076923,,,,0.0,45931.0,45933.0,46106.0,46108.0,46176.0,46196.0,46209.0,46213.0,46500.0,46505.0
40,40,46823.98644392922,0.5863577249199511,0.5186810101399438,47150.575339099865,-0.9904873305717249,0.3633217374037868,47185.942881609015,1.8292429695328811,10.182540328762311,47219.150678199716,-0.265654814818308,5.095930801696349,47449.575339099865,0.6007380246023759,2.547965400862468,0.519542133035449,326.0,324.0,73.0,229.0,302.0,2.0,892.0,1002.0,2.0,1.0,1.0,0.5,0.5706997226671668,0.206747383851475,3.0,2.0,1.0,0.6666666666666666,0.3116995857661274,0.21329082416223172,21.0,11.0,10.0,0.5238095238095238,1.9981308056447409,0.20850892849699057,9.0,6.0,3.0,0.6666666666666666,0.5813564736963417,0.21157817908218826,2.0,1.0,1.0,0.5,,,,0.0,46823.0,46825.0,47149.0,47152.0,47175.0,47196.0,47215.0,47222.0,47449.0,47451.0
41,41,47815.59288113083,3.4703070518502597,0.21415982349993887,48154.73054727625,-17.511382169995528,-0.09739546311240531,48184.933560831996,1.7943520092268392,10.270616771382306,48214.880591860245,-0.45465756145832786,1.0798701024426867,48466.424660900135,0.7389314150619025,2.5479654008640567,0.5225864029540476,339.0,337.0,63.0,254.0,317.0,2.0,992.0,999.0,2.0,1.0,1.0,0.5,0.4996298539885165,0.26070573254002277,2.0,1.0,1.0,0.5,0.034275274381192655,0.2036881948569124,24.0,13.0,11.0,0.5416666666666666,1.5841355526615364,0.20643540536101654,3.0,1.0,2.0,0.3333333333333333,0.832863425783619,0.21224655350302818,6.0,1.0,5.0,0.16666666666666666,,,,0.0,47815.0,47817.0,48154.0,48157.0,48178.0,48196.0,48214.0,48217.0,48465.0,48471.0
42,42,49062.02436216639,0.5603592870127193,0.6540511670569201,49115.66269912171,-0.6469115804344587,0.48969404449969317,49185.5041307864,1.7390343692775412,10.531380054376823,49224.77855814683,-0.5035668153253672,0.9355155222046544,49523.97120908407,0.6538047356340134,2.5479654008640567,0.49211285443484276,53.0,51.0,112.0,300.0,412.0,2.0,1246.0,1001.0,2.0,1.0,1.0,0.5,0.4613871889410278,0.2337981316924845,3.0,2.0,1.0,0.6666666666666666,0.40474906216167555,0.2337981316924845,30.0,16.0,14.0,0.5333333333333333,1.178580708450922,0.2337981316924845,3.0,2.0,1.0,0.6666666666666666,0.4685395182270003,0.2337981316924845,3.0,1.0,2.0,0.3333333333333333,,,,0.0,49061.0,49063.0,49114.0,49117.0,49176.0,49199.0,49223.0,49226.0,49523.0,49526.0
43,43,51139.42448783584,1.4787975177757424,0.3154636656681675,51152.86083991154,-0.4743041146592669,0.9451595808504024,51186.452035572234,1.6619747578372253,10.950944559507478,51215.576832758044,-0.6917465368827809,2.547950621771568,51474.02688574459,1.0001143432474924,0.7752139475705063,0.5169712055058008,13.0,11.0,68.0,256.0,324.0,2.0,2077.0,2002.0,2.0,1.0,1.0,0.5,0.3526508619015325,0.23707101432851183,4.0,2.0,2.0,0.5,0.146425599468934,0.23707101432851183,22.0,13.0,9.0,0.5909090909090909,1.5639610735051903,0.23707101432851183,4.0,1.0,3.0,0.25,0.967065741428548,0.23707101432851183,2.0,1.0,1.0,0.5,,,,0.0,51138.0,51140.0,51151.0,51155.0,51173.0,51195.0,51215.0,51219.0,51473.0,51475.0
44,44,53067.424660900135,0.4014409313744817,1.9734798487802887,53103.19628587489,-47.22542294046031,-0.0623362026477108,53185.70242055925,1.7795747281795595,10.488618532312278,53216.9744248953,-0.6901409668370824,0.6624945922843605,53476.82522614176,0.5976763250223792,2.5479654008640567,0.5179567375817922,34.0,29.0,118.0,260.0,378.0,5.0,1928.0,1995.0,5.0,1.0,4.0,0.2,0.3785495333028579,0.23414207216568625,2.0,1.0,1.0,0.5,0.27548223687920664,0.23414207216568625,27.0,13.0,14.0,0.48148148148148145,1.4954377591618373,0.23414207216568625,2.0,1.0,1.0,0.5,1.0523351467627853,0.23414207216568625,2.0,1.0,1.0,0.5,,,,0.0,53066.0,53071.0,53100.0,53104.0,53175.0,53199.0,53216.0,53218.0,53476.0,53478.0
45,45,54042.424660900135,0.5101081819454286,0.7676883194725861,54150.575339099865,-0.5353410222619557,0.48682151894102915,54182.69864360057,1.7952289687205998,10.191861603456227,54211.59731446971,-3.152754532458939,0.21364440695077788,54501.424660900135,0.7624159324745464,2.5479654008640567,0.5025968485253602,108.0,104.0,64.0,289.0,353.0,4.0,975.0,997.0,4.0,1.0,3.0,0.25,0.42690052913801346,0.22200628843603307,3.0,2.0,1.0,0.6666666666666666,0.43901765774312046,0.2408496855283069,23.0,9.0,14.0,0.391304347826087,1.9413438284773108,0.2411217415457713,2.0,1.0,1.0,0.5,0.9469874794297488,0.24582460319336685,2.0,1.0,1.0,0.5,,,,0.0,54041.0,54045.0,54149.0,54152.0,54177.0,54197.0,54211.0,54213.0,54500.0,54502.0
46,46,54999.575810572336,0.8865724391518041,-0.04157983741541199,55135.90417412219,-0.4365331777785206,0.13116904205675392,55182.12330450071,1.7496988379029397,12.094615445083948,55219.575339099865,-0.5184176955975847,2.547965400863776,55498.57533909987,0.8452667477517694,2.547965400843499,0.5243053442696538,135.0,132.0,87.0,280.0,367.0,3.0,958.0,999.0,2.0,1.0,1.0,0.5,0.5010655717186732,0.23273609411515486,2.0,1.0,1.0,0.5,0.36583607939957913,0.23273609411515486,26.0,11.0,15.0,0.4230769230769231,1.5186921834227105,0.23273609411515486,3.0,2.0,1.0,0.6666666666666666,0.7394281463615128,0.23273609411515486,3.0,1.0,2.0,0.3333333333333333,,,,0.0,54999.0,55002.0,55134.0,55137.0,55175.0,55197.0,55218.0,55221.0,55498.0,55501.0
47,47,55814.575339099865,1.3359560214773978,0.328117163591352,56151.575339099865,-0.3441625120659284,1.6158860438879485,56185.34331935716,1.783039182491171,10.499156082517228,56214.150678199716,-0.34875072445228067,4.306542884586497,56508.575339099865,0.6817175648132381,2.5479654008640567,0.5177392645781446,336.0,333.0,67.0,293.0,360.0,3.0,815.0,1005.0,2.0,1.0,1.0,0.5,0.6642531239489919,0.22879637822538376,3.0,2.0,1.0,0.6666666666666666,0.2040498963682604,0.22960746644981725,23.0,10.0,13.0,0.43478260869565216,1.8642695825800173,0.22917329325726243,4.0,1.0,3.0,0.25,0.6837622143614239,0.22960746644981725,2.0,1.0,1.0,0.5,,,,0.0,55814.0,55817.0,56150.0,56153.0,56175.0,56198.0,56213.0,56217.0,56508.0,56510.0
48,48,58027.92889478572,0.7659174809520921,-0.11161963628907119,58108.10540547955,-0.5261499951907774,0.44344593701252294,58185.77794163686,1.8097159243325507,10.340632331441503,58219.96317455393,-0.6465923649512488,0.10547651523778427,58498.424660900135,0.7738425166052783,2.5479654008640567,0.5545714547832813,80.0,78.0,114.0,278.0,392.0,2.0,2213.0,2002.0,2.0,1.0,1.0,0.5,0.6821515281203643,0.21231805471010504,2.0,1.0,1.0,0.5,0.44061694542569363,0.21231805471010504,26.0,14.0,12.0,0.5384615384615384,1.4601704657756804,0.21231805471010504,2.0,1.0,1.0,0.5,0.7784651469759604,0.21231805471010504,2.0,1.0,1.0,0.5,,,,0.0,58027.0,58029.0,58107.0,58109.0,58177.0,58197.0,58219.0,58221.0,58497.0,58499.0
49,49,58893.39334494635,1.443579620904371,0.25773346249786105,59117.58883528027,-2.977096100181481,0.22653230126958546,59185.280799180204,1.6995733286338208,9.35565437721865,59273.25924641849,-0.9220124168260946,0.43289200391318094,59484.57533909993,0.5709577407132552,2.5479654008640567,0.5211198277509064,225.0,223.0,157.0,212.0,369.0,2.0,865.0,997.0,2.0,1.0,1.0,0.5,0.294983168021959,0.21440884269301116,2.0,1.0,1.0,0.5,0.3537133219809521,0.20452166993754312,26.0,14.0,12.0,0.5384615384615384,1.5347967210524507,0.2182593887749099,2.0,1.0,1.0,0.5,0.7684462942440039,0.2210669076434831,2.0,1.0,1.0,0.5,,,,0.0,58892.0,58894.0,59117.0,59119.0,59175.0,59194.0,59272.0,59274.0,59484.0,59486.0
50,50,59970.24777270578,0.5845665078070487,0.37332213013453164,60132.999949312274,-0.5320147351462587,0.40042199730067857,60184.828838512905,1.662477526035216,11.055506125159043,60234.910432219316,-0.5508760681416972,0.5948694493606431,60475.42466089543,0.613942178836799,2.5479654008640567,0.5381021982034633,163.0,161.0,104.0,240.0,344.0,2.0,1077.0,997.0,2.0,1.0,1.0,0.5,0.6461503692813053,0.21878328825924762,2.0,1.0,1.0,0.5,0.620851608536034,0.21164126393157362,29.0,16.0,13.0,0.5517241379310345,1.790886719296426,0.20770139935167806,2.0,1.0,1.0,0.5,0.405229946089691,0.2043716589694388,4.0,3.0,1.0,0.75,,,,0.0,59969.0,59971.0,60132.0,60134.0,60171.0,60198.0,60234.0,60236.0,60472.0,60476.0
51,51,60873.350133050844,1.4455254469050174,0.27583892750115707,61067.19623225246,-5.857186407122412,0.08984100534870475,61185.670622801124,1.7205993583993504,10.41605384334612,61219.776363237565,-0.48374620616910163,2.54796540086405,61498.424660900135,0.7114746693951868,2.5479654008640567,0.4953578728261574,194.0,192.0,156.0,277.0,433.0,2.0,903.0,1003.0,2.0,1.0,1.0,0.5,0.5984350015133225,0.22984354003809745,2.0,1.0,1.0,0.5,0.6086098064992307,0.2312192769270964,28.0,15.0,13.0,0.5357142857142857,1.9687642591995083,0.22785514294765036,3.0,1.0,2.0,0.3333333333333333,0.9740233186845239,0.23062025480384107,3.0,2.0,1.0,0.6666666666666666,,,,0.0,60872.0,60874.0,61066.0,61068.0,61171.0,61199.0,61219.0,61222.0,61496.0,61499.0
52,52,62028.97714160923,0.7138285254078229,0.11437181925095438,62141.76702502972,-39.31987138863933,0.0780106769176019,62184.39728720114,1.836359686859081,10.830866823859669,62211.06011987679,-0.6374413088315244,0.7111243667233104,62470.20033686348,0.7842042576133079,2.5479654008640567,0.5379366185256285,113.0,111.0,71.0,259.0,330.0,2.0,1156.0,997.0,2.0,1.0,1.0,0.5,0.6812791735502921,0.23965424556608003,2.0,1.0,1.0,0.5,0.4248192881926058,0.23844199717224265,24.0,11.0,13.0,0.4583333333333333,2.0609249425849323,0.23643228970665586,2.0,1.0,1.0,0.5,1.019988587805506,0.23640069818831996,4.0,3.0,1.0,0.75,,,,0.0,62028.0,62030.0,62141.0,62143.0,62173.0,62197.0,62210.0,62212.0,62467.0,62471.0
53,53,62834.04517616886,0.7813343106311431,-0.09315956455221006,63120.42466089797,-1.5634434919149272,0.27346437307712124,63186.06224406434,1.8165769902749378,11.751501234131116,63216.424660900135,-0.44765212945510624,2.547965301639655,63477.575339099865,0.7960738900350545,2.5479654008640567,0.5075289327980512,286.0,284.0,98.0,262.0,360.0,2.0,805.0,1007.0,2.0,1.0,1.0,0.5,0.7448974385534295,0.2383459115604854,2.0,1.0,1.0,0.5,0.2875923891592216,0.23571879959154374,25.0,10.0,15.0,0.4,1.956787969226313,0.23571879959154374,2.0,1.0,1.0,0.5,1.0380242089558092,0.23571879959154374,2.0,1.0,1.0,0.5,,,,0.0,62833.0,62835.0,63119.0,63121.0,63177.0,63197.0,63215.0,63217.0,63477.0,63479.0
54,54,63894.27524284456,0.7052581418320931,0.48011723192378014,64096.578116257966,-1.5220613961317815,0.2889476181006721,64186.162543008424,1.7183090852223133,11.496959630277413,64213.201029091746,-0.6030258299362226,0.5664328192644179,64492.5753390999,0.7698979531414528,2.5479654008639643,0.5127641570561338,203.0,201.0,118.0,281.0,399.0,2.0,1060.0,997.0,2.0,1.0,1.0,0.5,0.8317613547301237,0.2170079623585111,2.0,1.0,1.0,0.5,0.7552441032165177,0.2170079623585111,29.0,14.0,15.0,0.4827586206896552,1.3622079703209884,0.2170079623585111,2.0,1.0,1.0,0.5,0.9304282412501175,0.2170079623585111,3.0,1.0,2.0,0.3333333333333333,,,,0.0,63893.0,63895.0,64096.0,64098.0,64172.0,64199.0,64212.0,64214.0,64492.0,64495.0
55,55,64972.05292191424,0.686871908218495,-0.1175649709394837,65133.5753593019,-3.4203444364847617,0.22606974657351536,65185.45531407637,1.7928456693602681,11.10310201558275,65216.127213734755,-0.46443500067559773,2.547965400857796,65499.4246608359,0.9138577288624202,2.5479654008640567,0.5414644931436267,162.0,160.0,86.0,281.0,367.0,2.0,1078.0,999.0,2.0,1.0,1.0,0.5,0.5134344176909342,0.21435119176805956,2.0,1.0,1.0,0.5,0.6507026348518679,0.2287103145131484,26.0,12.0,14.0,0.46153846153846156,1.8077364966537637,0.23602113907250222,4.0,1.0,3.0,0.25,1.1418115598764884,0.23548331611981613,2.0,1.0,1.0,0.5,,,,0.0,64971.0,64973.0,65133.0,65135.0,65174.0,65199.0,65215.0,65219.0,65498.0,65500.0
56,56,67045.14333073668,1.740433452656784,0.10261094927058173,67091.57533909999,-0.8148752596189802,0.32123831197473823,67185.24462064813,1.7764550672559247,11.246760303100022,67254.3152591437,-1.1219557159189901,0.2357039248396137,67486.8493215401,0.6905998951183574,5.095930801728113,0.5636692658925693,47.0,45.0,164.0,233.0,397.0,2.0,2073.0,2002.0,2.0,1.0,1.0,0.5,0.576217140751427,0.21665396421592917,2.0,1.0,1.0,0.5,0.3485859135876084,0.21665396421592917,29.0,14.0,15.0,0.4827586206896552,1.6837425307640754,0.21665396421592917,2.0,1.0,1.0,0.5,0.4066000400764481,0.21665396421592917,12.0,9.0,3.0,0.75,,,,0.0,67044.0,67046.0,67091.0,67093.0,67175.0,67199.0,67253.0,67255.0,67484.0,67488.0
57,57,68117.1345910429,2.5988457388796378,0.07925946528338171,68126.42466090013,-0.3547106205692847,0.9797652009332471,68184.85750400339,1.7518585585292468,11.368447308623745,68225.42466090013,-0.6900852259959507,0.41557284824191637,68490.57533910016,0.7953245752077024,2.5479654008640567,0.4933802077891448,9.0,7.0,103.0,264.0,367.0,2.0,1072.0,1001.0,2.0,1.0,1.0,0.5,0.6909356503643994,0.2330764386464021,2.0,1.0,1.0,0.5,0.47676345486652305,0.23312559761592372,26.0,14.0,12.0,0.5384615384615384,1.846428172218559,0.23216024617723294,3.0,1.0,2.0,0.3333333333333333,0.41481694679062875,0.23393708462636686,2.0,1.0,1.0,0.5,,,,0.0,68116.0,68118.0,68125.0,68127.0,68174.0,68194.0,68224.0,68228.0,68490.0,68492.0
58,58,68812.42466090013,1.3057648769601118,0.32133712634685035,69145.57533909987,-0.8949188886200342,0.32404156009269003,69185.1899531193,1.8320943109552972,10.616969067343812,69218.26835988401,-0.45416638915537405,2.158809407082539,69507.57535883256,0.7420263810046771,2.5479654008640567,0.5227316288552046,337.0,332.0,74.0,291.0,365.0,5.0,695.0,997.0,2.0,1.0,1.0,0.5,0.49423895053809785,0.2501099289395703,2.0,1.0,1.0,0.5,0.3319126496978584,0.2640560873561742,23.0,10.0,13.0,0.43478260869565216,1.8333269377116197,0.2351091921223356,3.0,2.0,1.0,0.6666666666666666,0.8417199372460769,0.21851661480052784,3.0,1.0,2.0,0.3333333333333333,,,,0.0,68808.0,68813.0,69145.0,69147.0,69175.0,69194.0,69216.0,69219.0,69507.0,69510.0
59,59,70897.61765858006,1.8040519642574333,0.2709149038992984,71115.31328728827,-1.1471946575260696,0.23980044574385695,71185.5614238913,1.7657935483280134,10.576056025200817,71215.57533909987,-0.5083646227243331,2.547965396318878,71419.42465928177,2.9204221237101167,0.2697307651709852,0.5013672468252764,216.0,214.0,104.0,203.0,307.0,2.0,2086.0,2001.0,2.0,1.0,1.0,0.5,0.5740192745640176,0.2372285898956783,2.0,1.0,1.0,0.5,0.46394990649947854,0.22491204906270396,23.0,11.0,12.0,0.4782608695652174,1.7575608230825193,0.21245098880887478,4.0,3.0,1.0,0.75,1.0964613230854148,0.21329679559134776,2.0,1.0,1.0,0.5,,,,0.0,70897.0,70899.0,71113.0,71116.0,71175.0,71195.0,71213.0,71217.0,71418.0,71420.0
60,60,71908.96062664528,0.5904545213200867,0.6432865272855823,72127.57533909987,-0.40667150096049365,2.5479572916868225,72186.1567224184,1.5115396911296555,9.972431317462421,72217.75642319844,-0.4776719176788626,7.64389620259217,72491.90366009991,0.6376008324840314,0.5788751596603217,0.48845361372487484,218.0,216.0,96.0,271.0,367.0,2.0,1011.0,999.0,2.0,1.0,1.0,0.5,0.6946301612042607,0.2315774712652438,3.0,2.0,1.0,0.6666666666666666,0.6562148865863885,0.2315774712652438,24.0,12.0,12.0,0.5,1.4812367208495325,0.2315774712652438,11.0,7.0,4.0,0.6363636363636364,0.7064584146392912,0.2315774712652438,2.0,1.0,1.0,0.5,,,,0.0,71908.0,71910.0,72126.0,72129.0,72178.0,72196.0,72211.0,72222.0,72491.0,72493.0
61,61,73069.01741665395,0.7149084114816501,-0.10853751074808456,73122.12950821998,-0.44584417856962455,0.5661871778839668,73186.11373083481,1.7069934978239956,10.530394005352376,73212.07086073521,-0.5837167403811399,0.5775441203046346,73474.42466090013,0.5774280969724778,2.5479649059569307,0.5118363554203148,53.0,51.0,92.0,262.0,354.0,2.0,1160.0,1001.0,2.0,1.0,1.0,0.5,0.7222352327007631,0.2279371720040017,2.0,1.0,1.0,0.5,0.37419156657726893,0.2279371720040017,22.0,8.0,14.0,0.36363636363636365,1.8067300985973915,0.2279371720040017,2.0,1.0,1.0,0.5,1.1723432558102762,0.2279371720040017,2.0,1.0,1.0,0.5,,,,0.0,73068.0,73070.0,73121.0,73123.0,73178.0,73200.0,73211.0,73213.0,73473.0,73475.0
62,62,73920.21281242919,39.32120988004822,0.0723669653408992,74111.9614203469,-212.3371358548385,-0.011391635412169471,74185.6207798856,1.8066960727954666,10.707160958258463,74220.5753395225,-0.39486776751648317,2.5479654008640567,74503.72601729959,0.7336861768517016,7.64389620259217,0.5512449905083552,192.0,190.0,111.0,290.0,401.0,2.0,851.0,999.0,2.0,1.0,1.0,0.5,0.34489736414915956,0.23105902025204736,2.0,1.0,1.0,0.5,0.5479805863680846,0.23530023066771114,27.0,15.0,12.0,0.5555555555555556,1.7555780651326576,0.22832236866637645,2.0,1.0,1.0,0.5,0.6364121537087555,0.22669794282133957,18.0,10.0,8.0,0.5555555555555556,,,,0.0,73919.0,73921.0,74111.0,74113.0,74174.0,74192.0,74220.0,74222.0,74502.0,74512.0
63,63,74894.57893019044,2.4059293678251605,0.23783873452077314,75151.3951165421,-0.4604994719777611,1.6882992359793907,75185.32102672776,1.8225104920019117,10.329633221001487,75272.11233384044,-0.5547188792991826,0.5851125982509179,75500.57533909987,0.8207246249291247,2.5479654008640567,0.5173030408558954,255.0,252.0,124.0,229.0,353.0,3.0,975.0,1002.0,2.0,1.0,1.0,0.5,0.34402319006870496,0.23192764168866967,5.0,2.0,3.0,0.4,0.5756712902723728,0.23035570847488682,27.0,13.0,14.0,0.48148148148148145,1.7585708610253927,0.22836800021300843,2.0,1.0,1.0,0.5,0.5819692322896733,0.2282231398633476,5.0,4.0,1.0,0.8,,,,0.0,74894.0,74897.0,75149.0,75154.0,75172.0,75197.0,75271.0,75273.0,75497.0,75502.0
64,64,76924.20754761835,1.6767396340709333,0.1406016947909286,77122.17207121047,-2.6640348414207984,-0.10414280259122324,77185.32803903239,1.703610154301448,10.606425909370182,77229.79258021821,-1.0471157995026195,0.2262697692898005,77482.57533909987,0.6247383074158418,2.5479654008640567,0.4946964415824192,199.0,196.0,110.0,253.0,363.0,3.0,2029.0,2002.0,2.0,1.0,1.0,0.5,0.5542259264096108,0.2331538996366842,2.0,1.0,1.0,0.5,0.6026197320922219,0.23316258578893212,20.0,8.0,12.0,0.4,1.9441232632405892,0.23316258578893212,2.0,1.0,1.0,0.5,0.6656996557234254,0.23316258578893212,2.0,1.0,1.0,0.5,,,,0.0,76922.0,76925.0,77121.0,77123.0,77177.0,77195.0,77229.0,77231.0,77482.0,77484.0
65,65,78031.68027216344,1.9202808944428709,0.21187501281294582,78141.28799185189,-28225.976622932143,0.06086018929317567,78187.60271279886,1.669176900578373,11.143723211914928,78216.15067819973,-0.4842975289851145,5.095930801728113,78481.7260172996,0.8689492419609343,7.64389620259217,0.5511975342118246,107.0,105.0,81.0,267.0,348.0,2.0,1108.0,1003.0,2.0,1.0,1.0,0.5,0.5269532591936843,0.24952152731815874,2.0,1.0,1.0,0.5,0.42340987854670065,0.23800168615613035,26.0,13.0,13.0,0.5,1.0465922910549006,0.23268690283544502,6.0,3.0,3.0,0.5,0.6443707277097199,0.23003900445720052,23.0,11.0,12.0,0.4782608695652174,,,,0.0,78031.0,78033.0,78138.0,78142.0,78175.0,78199.0,78215.0,78219.0,78479.0,78486.0
66,66,79030.65902173369,1.3648552687011246,0.256989661772856,79152.57534994309,-1.4121847325923462,0.2814921208995511,79185.58113285738,1.7756418750258418,11.695207340670247,79212.42466089585,-0.5067315305482437,2.5479654008640567,79491.42466090013,0.7631111316128436,2.5479654008640567,0.5440086690751258,122.0,120.0,61.0,279.0,340.0,2.0,999.0,994.0,2.0,1.0,1.0,0.5,0.6609499127317191,0.21316939712341737,2.0,1.0,1.0,0.5,0.13985133986594178,0.20919039090186456,31.0,16.0,15.0,0.5161290322580645,1.4992648169141005,0.21093527702556755,2.0,1.0,1.0,0.5,1.243167358093679,0.2183391175393653,2.0,1.0,1.0,0.5,,,,0.0,79030.0,79032.0,79152.0,79154.0,79171.0,79201.0,79211.0,79213.0,79490.0,79492.0
67,67,80079.39524999917,2.6620195833451037,0.2539316723690222,80101.57533909987,-0.44675095511039825,1.8153382153467528,80185.82194810128,1.7607112322167673,11.124379236096628,80215.37099516173,-0.5672195415967711,2.5479654008639443,80483.57533909987,0.7377098119120773,2.5479654008640567,0.5351428555941221,21.0,19.0,120.0,266.0,386.0,2.0,1048.0,997.0,2.0,1.0,1.0,0.5,0.7792616823583773,0.23409399453090712,4.0,3.0,1.0,0.75,0.43032419339004135,0.23409399453090712,27.0,13.0,14.0,0.48148148148148145,1.794312634304887,0.23409399453090712,5.0,1.0,4.0,0.2,1.1823870065073367,0.23409399453090712,2.0,1.0,1.0,0.5,,,,0.0,80078.0,80080.0,80099.0,80103.0,80173.0,80200.0,80214.0,80219.0,80483.0,80485.0
68,68,80827.86689466669,0.6109959352040982,0.5140001363703517,81148.15067819973,0.09096462309421485,4.981434698437407,81185.55444982367,1.7689928633369905,10.817693251331008,81213.42466090013,-0.37008341506464365,2.5479654008640567,81509.42465724974,0.619554845712317,2.5479654008640567,0.5233261825014591,320.0,318.0,67.0,296.0,363.0,2.0,749.0,1005.0,2.0,1.0,1.0,0.5,0.6637482529288787,0.22795606980909747,2.0,1.0,1.0,0.5,0.39004317603977456,0.2218366788311181,26.0,12.0,14.0,0.46153846153846156,1.687314646598872,0.20913511266886112,3.0,2.0,1.0,0.6666666666666666,0.9221703942608758,0.22536940351866297,3.0,2.0,1.0,0.6666666666666666,,,,0.0,80827.0,80829.0,81147.0,81152.0,81175.0,81193.0,81211.0,81214.0,81507.0,81510.0
69,69,83033.25027149892,1.149109337638599,0.35142052690473663,83132.83279131644,-0.6440865507394216,0.013241750966609733,83185.57072079698,1.8507697350114702,10.910823475355713,83216.27267115824,-0.5237427422131468,0.41439905390186577,83489.02974419737,0.900090325720942,2.547965400863226,0.5009294051017579,100.0,98.0,85.0,274.0,359.0,2.0,2205.0,1997.0,2.0,1.0,1.0,0.5,1.061473013246392,0.23503128825553757,2.0,1.0,1.0,0.5,0.34364841762005544,0.23477147684533226,23.0,12.0,11.0,0.5217391304347826,1.9399994896619306,0.23126441469914033,2.0,1.0,1.0,0.5,0.7852814848746863,0.23126441469914033,3.0,1.0,2.0,0.3333333333333333,,,,0.0,83032.0,83034.0,83132.0,83135.0,83174.0,83197.0,83215.0,83217.0,83488.0,83491.0
70,70,83986.69145798113,0.672812460711606,0.41795438102384974,84157.57534350263,-2.1536409746491665,0.2842880140524563,84185.47265941955,1.7007789813513272,10.642021710750086,84276.57539885967,-2.9080954655929405,0.24102571735196573,84481.38324262016,0.6258734139159974,2.54796540049469,0.5476530469622559,171.0,169.0,121.0,204.0,325.0,2.0,954.0,1004.0,2.0,1.0,1.0,0.5,0.6322300558095014,0.24152475856827646,2.0,1.0,1.0,0.5,0.06282628458580161,0.22110263011049908,27.0,12.0,15.0,0.4444444444444444,1.6738137464576224,0.2308796912473176,2.0,1.0,1.0,0.5,0.5774917966600379,0.22256544460434158,2.0,1.0,1.0,0.5,,,,0.0,83986.0,83988.0,84157.0,84159.0,84177.0,84198.0,84276.0,84278.0,84480.0,84482.0
71,71,84884.58839401636,2.0394632709375937,0.26218053582699496,85153.76816722343,-0.5332530140734694,0.60042651734995,85185.35904854827,1.6633594177244932,11.31847853603281,85214.89302925623,-0.45641926792170295,2.5479654008640567,85488.80804686346,0.988343550804113,0.6310415505981994,0.5180002935821199,269.0,267.0,63.0,274.0,337.0,2.0,898.0,998.0,2.0,1.0,1.0,0.5,0.5793575905310031,0.23356036403876937,2.0,1.0,1.0,0.5,0.04197102151860321,0.22071643614085096,20.0,11.0,9.0,0.55,1.9141459585525902,0.2091254138292282,2.0,1.0,1.0,0.5,1.0044232736799046,0.20921173362260229,2.0,1.0,1.0,0.5,,,,0.0,84884.0,84886.0,85153.0,85155.0,85174.0,85194.0,85214.0,85216.0,85488.0,85490.0
72,72,86090.75101980692,17.707325794948396,0.09561005657743268,86152.22799208568,-4.6973534885901715,0.1028341466362075,86184.12330450071,1.8581335867778497,11.038401678619453,86220.62004319442,-0.3423530751190759,2.041185399661933,86477.63355035688,0.8620613499570615,2.5479654008640567,0.5233551850195353,57.0,55.0,76.0,256.0,332.0,2.0,1206.0,996.0,2.0,1.0,1.0,0.5,0.6296088639819332,0.22289296858070387,2.0,1.0,1.0,0.5,0.005615984822156972,0.22289296858070387,24.0,9.0,15.0,0.375,2.0421943940614957,0.22289296858070387,3.0,1.0,2.0,0.3333333333333333,0.5743516602275787,0.22289296858070387,3.0,2.0,1.0,0.6666666666666666,,,,0.0,86090.0,86092.0,86147.0,86153.0,86177.0,86197.0,86220.0,86223.0,86476.0,86479.0
73,73,87037.42466090013,0.34944282286210093,2.547965400830319,87126.62327959722,-3.0131299918043384,0.19305278524588582,87185.64927445371,1.782562115132231,10.62506259158466,87207.39939910894,-4.83786168794347,0.20501269086919316,87521.15067819973,0.602568453587906,5.095930801728113,0.520540981792271,90.0,88.0,82.0,316.0,398.0,2.0,946.0,1004.0,2.0,1.0,1.0,0.5,0.5419068823947979,0.22572302467819455,2.0,1.0,1.0,0.5,0.7523887468949972,0.22919220273739574,18.0,10.0,8.0,0.5555555555555556,2.2265690209051305,0.23035514251082773,2.0,1.0,1.0,0.5,1.4614776747016216,0.23156833658855,4.0,1.0,3.0,0.25,,,,0.0,87036.0,87038.0,87126.0,87129.0,87176.0,87194.0,87167.0,87208.0,87520.0,87524.0
74,74,88029.99221712664,0.6274929693524531,-0.08557143276043605,88136.42465796856,-1.7130485945797291,0.2768009796233476,88185.7792855392,1.821835364932602,9.875622661560083,88259.57533909987,-0.5158752545726077,0.7552372545057249,88495.7260172999,0.6769074784184231,7.64389620259217,0.5753074036310438,106.0,104.0,126.0,241.0,367.0,2.0,993.0,1000.0,2.0,1.0,1.0,0.5,0.34260946546670645,0.23059653723259152,2.0,1.0,1.0,0.5,0.6838179909744064,0.22823596694420428,19.0,10.0,9.0,0.5263157894736842,2.2305581249921405,0.23386372098388683,3.0,2.0,1.0,0.6666666666666666,0.6156186971783039,0.23042730523248833,8.0,2.0,6.0,0.25,,,,0.0,88029.0,88031.0,88135.0,88137.0,88176.0,88195.0,88258.0,88261.0,88494.0,88502.0
75,75,89958.17506202431,2.580245855828925,-0.10135637168918041,90102.76418674867,-1.1212497320138652,0.1780121313825274,90185.11674683883,1.7704631686305516,10.953270336926584,90257.58500892387,-0.8394724788599652,0.33708961428451867,90507.1506781999,0.6768941384818156,5.09593080172811,0.5353625991561362,146.0,143.0,157.0,253.0,410.0,3.0,1928.0,2002.0,2.0,1.0,1.0,0.5,0.5200469288610282,0.22099568059639074,2.0,1.0,1.0,0.5,0.43267581405501815,0.22126225025102078,25.0,12.0,13.0,0.48,1.550936317724532,0.23107347627081692,2.0,1.0,1.0,0.5,0.3036322281758399,0.22661758406149407,6.0,1.0,5.0,0.16666666666666666,,,,0.0,89956.0,89959.0,90102.0,90104.0,90176.0,90198.0,90257.0,90259.0,90506.0,90512.0
76,76,90900.85295164035,2.2017726168505067,-0.09123959277707364,91146.5753525041,-2.6403770432133857,0.24860179159496731,91185.62543765272,1.769567361384558,10.700685002512396,91219.0910810993,-0.6172957349137193,0.8590570455487496,91498.4246609001,0.7106450922435318,2.5479627746748896,0.5039289666398372,246.0,242.0,74.0,280.0,354.0,4.0,943.0,996.0,2.0,1.0,1.0,0.5,0.5508717040197038,0.23669298329299931,2.0,1.0,1.0,0.5,0.6782474481468934,0.23220617933140167,24.0,12.0,12.0,0.5,1.8373630783692774,0.22729664012204454,2.0,1.0,1.0,0.5,1.02006902737632,0.226419943152101,3.0,1.0,2.0,0.3333333333333333,,,,0.0,90900.0,90904.0,91146.0,91148.0,91174.0,91196.0,91218.0,91220.0,91497.0,91500.0
77,77,91850.76089784937,0.8741486747663758,0.23946768148366612,92132.84932180027,-0.11071225765820883,5.095930801728113,92186.11097601426,1.8795582844070589,11.288487417370419,92211.42466090013,-0.44257173645044057,2.5479654008640567,92505.21560630626,0.7619697912972815,2.5479654008640567,0.5537161413106678,278.0,276.0,85.0,295.0,380.0,2.0,950.0,1004.0,2.0,1.0,1.0,0.5,0.7394718704817009,0.22441580317686347,2.0,1.0,1.0,0.5,0.36618025371757423,0.23126890245173984,29.0,15.0,14.0,0.5172413793103449,1.8023332907381007,0.23308084433059498,3.0,1.0,2.0,0.3333333333333333,1.3262499488451487,0.22874512519444992,4.0,1.0,3.0,0.25,,,,0.0,91850.0,91852.0,92128.0,92134.0,92177.0,92198.0,92210.0,92213.0,92504.0,92508.0
78,78,93093.74395505516,0.8030781053888322,0.4212754503345682,93111.57806180355,-2.0939258846597744,0.2706001926976404,93185.40387092398,1.9113156633258421,9.688632887513219,93246.4201320325,-2.2246051013137986,0.2585209431049552,93478.57533909987,0.8806422761241599,2.5479136692448847,0.5305069151052828,18.0,16.0,136.0,233.0,369.0,2.0,1243.0,996.0,2.0,1.0,1.0,0.5,0.68547356721954,0.22998812587915202,2.0,1.0,1.0,0.5,0.5588118610850703,0.23076543866363647,24.0,11.0,13.0,0.4583333333333333,1.5617210638329035,0.23151140459446515,2.0,1.0,1.0,0.5,0.5603217661293136,0.2312226785652063,3.0,2.0,1.0,0.6666666666666666,,,,0.0,93093.0,93095.0,93111.0,93114.0,93175.0,93194.0,93245.0,93247.0,93477.0,93480.0
79,79,93891.9084242983,0.561438872949212,0.5055317795894153,94155.04819143128,-0.630934020598799,0.07192944942630095,94184.39728720114,1.8007820596822501,10.514998312621184,94253.5827388022,-3.130502265468531,0.22045917854745872,94513.12069760746,0.6837618137689099,2.5479654008640567,0.532501161119096,263.0,261.0,101.0,259.0,360.0,2.0,798.0,997.0,2.0,1.0,1.0,0.5,0.47567413450633544,0.23099995752480634,2.0,1.0,1.0,0.5,0.0671586308131879,0.2291815967828423,25.0,11.0,14.0,0.44,2.0091960589347932,0.2291815967828423,2.0,1.0,1.0,0.5,0.6084715687753999,0.2291815967828423,2.0,1.0,1.0,0.5,,,,0.0,93891.0,93893.0,94154.0,94156.0,94173.0,94196.0,94253.0,94255.0,94512.0,94514.0
80,80,94946.98052441802,0.7218727589400287,0.12593414380495999,95125.42466089985,-0.5058813575047694,1.124237041075636,95185.12846142861,1.7310386647188307,10.255314382383926,95236.34710924274,-0.7951479045752663,-0.012417017731642388,95478.42462529469,0.4632429983401585,2.547958877935205,0.545382099930871,178.0,176.0,113.0,243.0,356.0,2.0,1055.0,1006.0,2.0,1.0,1.0,0.5,0.38903702881218616,0.21795100927906783,4.0,1.0,3.0,0.25,0.24606182017293488,0.21795100927906783,27.0,13.0,14.0,0.48148148148148145,1.3966310792600245,0.21795100927906783,2.0,1.0,1.0,0.5,0.307284725549064,0.21795100927906783,3.0,1.0,2.0,0.3333333333333333,,,,0.0,94946.0,94948.0,95124.0,95128.0,95177.0,95195.0,95234.0,95237.0,95477.0,95480.0
81,81,96056.09505953816,0.6012980461981788,0.9421882448141881,96150.51800420765,-1.4057223514368318,-0.2891683351533946,96184.54796540085,1.797356128965027,11.201174431584981,96212.42465550854,-3.702741117531367,0.20328562583795912,96505.57533909987,0.7368424927033738,2.5479654008640567,0.510487049142315,93.0,89.0,66.0,294.0,360.0,4.0,1109.0,995.0,4.0,2.0,2.0,0.5,0.7678862191412736,0.21862771059091998,4.0,3.0,1.0,0.75,0.1217893378562373,0.21862771059091998,25.0,9.0,16.0,0.36,2.056457448086993,0.21862771059091998,2.0,1.0,1.0,0.5,1.0265973020103758,0.21862771059091998,3.0,2.0,1.0,0.6666666666666666,,,,0.0,96054.0,96058.0,96147.0,96154.0,96176.0,96196.0,96211.0,96213.0,96504.0,96507.0
82,82,96971.42029612011,2.034269352264751,0.24863264234877414,97148.4038343953,-1.7470590721174604,0.26417070578542917,97185.8942020102,1.846442163049783,10.275381853570558,97247.0774026299,-0.7080306361582327,-0.14831486812955022,97501.52459880106,0.6655589497996957,5.095930801728113,0.5798004599444601,177.0,175.0,101.0,256.0,357.0,2.0,915.0,1004.0,2.0,1.0,1.0,0.5,0.4945927532105858,0.23071737406910647,2.0,1.0,1.0,0.5,0.4842957983949322,0.23327210874394236,21.0,11.0,10.0,0.5238095238095238,2.225163501251239,0.2243376675449096,2.0,1.0,1.0,0.5,0.5910920459452264,0.21948876520192376,4.0,2.0,2.0,0.5,,,,0.0,96970.0,96972.0,97147.0,97149.0,97175.0,97196.0,97246.0,97248.0,97500.0,97504.0
83,83,97828.35535735216,1.6189451004090265,0.2561400698968678,98131.8624009595,-0.6876768401244943,0.39439587789822805,98185.15280290187,1.7515935320306302,10.357692848107312,98213.81232161849,-0.3888271649862483,3.7263821747388617,98477.57533909987,0.5821055407959476,2.547965400796523,0.520996225763276,304.0,302.0,84.0,264.0,348.0,2.0,857.0,998.0,2.0,1.0,1.0,0.5,0.8725990561313313,0.22960045500317322,2.0,1.0,1.0,0.5,0.7282827798696867,0.23008484281005354,21.0,9.0,12.0,0.42857142857142855,2.2106159500177553,0.23008484281005354,5.0,3.0,2.0,0.6,0.7176992730373405,0.23008484281005354,2.0,1.0,1.0,0.5,,,,0.0,97827.0,97829.0,98131.0,98133.0,98176.0,98197.0,98211.0,98215.0,98477.0,98479.0
84,84,99060.57533909987,0.39661408113562013,2.5479653983163675,99159.21293616298,-4.593913207973153,0.10956921693517332,99185.27923671977,1.8004389283546662,11.281533021041435,99240.68363699933,-32.47305486963265,0.10886374203747175,99498.72601729959,0.8828586399114065,7.64389620259217,0.5737474844142132,97.0,95.0,87.0,259.0,346.0,2.0,1233.0,1000.0,2.0,1.0,1.0,0.5,0.5265975139682944,0.22341321539330797,2.0,1.0,1.0,0.5,0.12125172390803635,0.22285277127605843,26.0,12.0,14.0,0.46153846153846156,1.894474773716683,0.22369706648438384,2.0,1.0,1.0,0.5,0.6130228795602873,0.22258007285188422,20.0,11.0,9.0,0.55,,,,0.0,99060.0,99062.0,99157.0,99160.0,99174.0,99199.0,99240.0,99244.0,99491.0,99503.0
85,85,100023.62901418867,1.6034021109864265,0.2509963363244227,100149.77395846296,-0.559299185954731,0.4114012121761116,100185.75356530782,1.736432673025318,10.562143343946769,100218.57533909987,-1.6450412327805612,0.3187034592638433,100504.85352127832,0.5698415718828179,2.5479654008640567,0.5245245272170522,126.0,124.0,71.0,286.0,357.0,2.0,963.0,999.0,2.0,1.0,1.0,0.5,0.6502285971130174,0.21821119151469315,2.0,1.0,1.0,0.5,0.2543742912586938,0.22067345058340748,26.0,14.0,12.0,0.5384615384615384,1.4853136554434028,0.22067345058340748,2.0,1.0,1.0,0.5,0.7926104388990343,0.22067345058340748,2.0,1.0,1.0,0.5,,,,0.0,100023.0,100025.0,100149.0,100151.0,100174.0,100198.0,100218.0,100220.0,100504.0,100506.0
86,86,0.0,0.0,0.0,0.0,0.0,0.0,0.0,0.0,0.0,0.0,0.0,0.0,0.0,0.0,0.0,0.0,0.0,0.0,0.0,0.0,0.0,0.0,0.0,0.0,0.0,0.0,0.0,0.0,0.0,0.0,0.0,0.0,0.0,0.0,0.0,0.0,0.0,0.0,0.0,0.0,0.0,0.0,0.0,0.0,0.0,0.0,0.0,0.0,0.0,0.0,0.0,0.0,,,,0.0,,100819.0,101121.0,101123.0,101172.0,101196.0,101279.0,101281.0,101493.0,101496.0
87,87,102096.93350634916,0.8289771734180489,0.07587737002167085,102145.23891517706,-0.5804812890424662,0.47374785286947746,102185.31558411784,1.8005266983985124,9.87205468362849,102218.42466090013,-0.44079634946889923,2.54796495099397,102498.15067819973,0.6104466409396773,5.095930801728097,0.5518885219712112,48.0,46.0,77.0,280.0,357.0,2.0,2073.0,2002.0,2.0,1.0,1.0,0.5,0.6608518745772929,0.2287263771723923,2.0,1.0,1.0,0.5,0.49346020365926613,0.2287263771723923,24.0,11.0,13.0,0.4583333333333333,1.9998586178781839,0.2287263771723923,4.0,1.0,3.0,0.25,0.9499447059742544,0.2287263771723923,5.0,1.0,4.0,0.2,,,,0.0,102096.0,102098.0,102144.0,102146.0,102174.0,102198.0,102217.0,102221.0,102497.0,102501.0
88,88,103007.42465015483,1.446718274457021,0.29291716386907274,103097.64420350845,-2.6034448992524992,0.2153574539974921,103185.70217600084,1.7263574080027704,10.673093560696598,103214.42466090013,-0.5665603568324347,2.5479654008640438,103499.42466090013,0.6903780980645248,2.5479653984214305,0.5408815353378674,91.0,89.0,121.0,287.0,408.0,2.0,910.0,1001.0,2.0,1.0,1.0,0.5,0.36025636941237815,0.22953511462510265,2.0,1.0,1.0,0.5,0.8759708588798982,0.18778953103951798,25.0,13.0,12.0,0.52,2.0555755964248723,0.25584654030483206,5.0,1.0,4.0,0.2,0.827979981541249,0.2328515258786018,7.0,1.0,6.0,0.14285714285714285,,,,0.0,103006.0,103008.0,103097.0,103099.0,103173.0,103198.0,103213.0,103218.0,103498.0,103505.0
89,89,103998.13263492698,0.5588698663917457,0.6545612343023733,104079.13378710467,-0.49312176892967724,0.5542804484037497,104186.41115289419,1.6872980001005438,11.511623286546477,104211.42466090013,-0.429464517431874,2.5479654008640567,104475.42466090013,0.7101388497107354,2.5479644981009155,0.5061279454038509,81.0,79.0,134.0,265.0,399.0,2.0,991.0,1000.0,2.0,1.0,1.0,0.5,0.6048753667285598,0.23218804549301023,2.0,1.0,1.0,0.5,0.6176873884433282,0.23218804549301023,23.0,11.0,12.0,0.4782608695652174,1.8820971150952892,0.23218804549301023,2.0,1.0,1.0,0.5,1.2244550380865262,0.23218804549301023,3.0,1.0,2.0,0.3333333333333333,,,,0.0,103997.0,103999.0,104078.0,104080.0,104175.0,104198.0,104210.0,104212.0,104474.0,104477.0
90,90,105077.42466090013,1.6331782349422315,0.3378084711671898,105084.4517387531,-1.6434971725872758,-0.26607018793752457,105186.00520071595,1.7831689820594412,10.763839432891201,105260.68332448625,-0.5417818994174098,0.033920360127767,105482.42466090013,0.7770175325803849,2.5479654008640567,0.49015932332767975,6.0,3.0,182.0,221.0,403.0,3.0,1079.0,998.0,3.0,1.0,2.0,0.3333333333333333,0.8198399927087578,0.23193830245206307,3.0,1.0,2.0,0.3333333333333333,0.49938765766182347,0.23205722414133353,31.0,15.0,16.0,0.4838709677419355,1.7060140048024939,0.22882926609874119,2.0,1.0,1.0,0.5,0.3297255769549321,0.22837217000688012,4.0,1.0,3.0,0.25,,,,0.0,105076.0,105079.0,105082.0,105086.0,105173.0,105197.0,105260.0,105264.0,105481.0,105485.0
91,91,106009.97942985987,0.6140028972709347,-0.08979876725275952,106113.79772958116,-3.6741509014454508,-0.10132392992565029,106185.37986115328,1.8866872661600442,10.778139146111977,106217.76376313462,-0.8067114399605945,0.38491205226115605,106477.84932180027,0.6958365566223731,5.095930801728113,0.5519034004716925,104.0,102.0,106.0,260.0,366.0,2.0,933.0,1002.0,2.0,1.0,1.0,0.5,0.6103948387183199,0.22207896599632398,2.0,1.0,1.0,0.5,0.554524472286015,0.2290905601915286,28.0,14.0,14.0,0.5,2.1162718481865204,0.2333961172158694,2.0,1.0,1.0,0.5,0.8229658993269309,0.22563527030290767,4.0,3.0,1.0,0.75,,,,0.0,106009.0,106011.0,106113.0,106116.0,106178.0,106199.0,106217.0,106219.0,106475.0,106479.0
92,92,106750.13203346185,2.263804712156645,0.07989512586171674,107134.55273494386,-0.40915062826858,-0.052749699484683,107186.60271279886,1.69320828291431,9.843112402522257,107215.69350303947,-0.7153488777839018,0.7273565440884711,107514.42466090013,0.7112554101356418,1.7218818431932255,0.4967949789865643,382.0,380.0,86.0,300.0,386.0,2.0,740.0,1004.0,2.0,1.0,1.0,0.5,0.598062638681928,0.2348266270029268,3.0,2.0,1.0,0.6666666666666666,0.5779193424029245,0.23209932308100276,22.0,11.0,11.0,0.5,1.4416122196621333,0.23209932308100276,3.0,2.0,1.0,0.6666666666666666,1.096989462633008,0.23209932308100276,4.0,1.0,3.0,0.25,,,,0.0,106749.0,106751.0,107131.0,107137.0,107178.0,107198.0,107214.0,107217.0,107513.0,107517.0
93,93,107732.68427968577,0.6342193653722829,0.5390531682521065,108141.42460864758,-1.6331906285155318,0.31013674271163527,108184.68890794949,1.735300569727735,10.090405158669098,108215.95503058987,-0.6487871011063181,0.5171503991991115,108496.42460917708,2.0741797485355393,0.31960909567892054,0.5321037199662192,409.0,406.0,77.0,280.0,357.0,3.0,983.0,995.0,3.0,2.0,1.0,0.6666666666666666,0.55590511395461,0.23100623936570017,2.0,1.0,1.0,0.5,0.5203914968216533,0.23017270318361796,22.0,11.0,11.0,0.5,1.7983078737058842,0.23017270318361796,2.0,1.0,1.0,0.5,0.9136120465454126,0.23017270318361796,2.0,1.0,1.0,0.5,,,,0.0,107731.0,107734.0,108140.0,108142.0,108174.0,108196.0,108215.0,108217.0,108495.0,108497.0
94,94,109085.42424030593,1.0667551955032044,0.35671392462676405,109142.57960883564,-1.2420576964028023,0.34989808001707845,109185.68525009452,1.6440578585358638,10.276208054545886,109272.07602783815,-0.6920613542908417,0.5795769765355029,109476.2739826407,0.5452593794202093,7.6438549425862705,0.5419990122889226,57.0,54.0,132.0,206.0,338.0,3.0,1352.0,1003.0,3.0,1.0,2.0,0.3333333333333333,0.48059979938431313,0.22468883655934704,3.0,2.0,1.0,0.6666666666666666,0.5417307906132266,0.22333950161887836,26.0,14.0,12.0,0.5384615384615384,1.478012466568348,0.22333950161887836,2.0,1.0,1.0,0.5,1.0000757465808026,0.22333950161887836,8.0,5.0,3.0,0.625,,,,0.0,109084.0,109087.0,109141.0,109144.0,109174.0,109198.0,109271.0,109273.0,109472.0,109479.0
95,95,110046.78029766615,0.6693520313662596,0.505125102694675,110130.42465947448,-1.2979191012595508,0.2856956338794986,110185.03478593437,1.8113056620522165,10.485427738860643,110230.57533910281,-1.2345313461469467,0.3087256811962421,110499.57533909987,0.6859226353655716,2.5479653922430807,0.49883077318638325,83.0,81.0,104.0,268.0,372.0,2.0,962.0,999.0,2.0,1.0,1.0,0.5,0.6235754083965942,0.2402567851801953,2.0,1.0,1.0,0.5,0.5730279345204363,0.23786952273111694,23.0,10.0,13.0,0.43478260869565216,1.7377604757658451,0.2383266740137855,2.0,1.0,1.0,0.5,0.2742127559309596,0.2383266740137855,2.0,1.0,1.0,0.5,,,,0.0,110046.0,110048.0,110129.0,110131.0,110175.0,110195.0,110230.0,110233.0,110499.0,110501.0
96,96,110915.35600652042,1.3079221762236273,0.2865748460946135,111158.79717565962,-0.9164731587222193,0.0012589063773144615,111184.60396663636,1.7690859044198926,10.407022894254444,111250.42466087978,-1.2596678020923182,0.3538049030995145,111529.42466074234,0.5967321722761713,2.5479552636473555,0.5039303038939922,244.0,242.0,94.0,280.0,374.0,2.0,868.0,996.0,2.0,1.0,1.0,0.5,0.5351313121719672,0.22482797480034647,2.0,1.0,1.0,0.5,0.22380150986854838,0.22240523940415308,20.0,9.0,11.0,0.45,1.6967488824725987,0.22318412306233873,3.0,1.0,2.0,0.3333333333333333,0.5557652856870245,0.2221603969480891,4.0,1.0,3.0,0.25,,,,0.0,110914.0,110916.0,111158.0,111162.0,111176.0,111194.0,111249.0,111252.0,111528.0,111532.0
97,97,112048.57533909987,0.4702948920440419,2.3205780971710044,112103.57534810368,-4.822189035348832,0.208386830070892,112185.63528810114,1.7069802312308084,11.281962152006752,112217.2115972282,-0.321924919497498,2.7281653201965774,112497.57533909987,0.8114756727800777,2.5479654008640567,0.5345744722257113,57.0,53.0,117.0,279.0,396.0,4.0,1134.0,1004.0,4.0,3.0,1.0,0.75,0.5281686343436665,0.22749687674321403,2.0,1.0,1.0,0.5,0.5459181018049156,0.22688457118168326,30.0,16.0,14.0,0.5333333333333333,1.4992595985301909,0.22688457118168326,7.0,3.0,4.0,0.42857142857142855,0.6855901138633096,0.22688457118168326,2.0,1.0,1.0,0.5,,,,0.0,112046.0,112050.0,112103.0,112105.0,112174.0,112198.0,112216.0,112220.0,112497.0,112499.0
98,98,113051.85908642203,8.25578385720632,0.060773304272625006,113127.82875009239,-2.19092033099628,-0.09540562327949678,113185.3022311163,1.8849795988559366,10.905153984944697,113221.57533909987,-0.5502675617482813,1.1380452440860103,113485.42466072962,0.9040214378049304,2.5479654008637413,0.5659638067639146,76.0,74.0,96.0,263.0,359.0,2.0,1003.0,1001.0,2.0,1.0,1.0,0.5,0.6457778136169412,0.21726282216779472,2.0,1.0,1.0,0.5,0.6640672623822806,0.21726282216779472,26.0,12.0,14.0,0.46153846153846156,1.861201210288701,0.21726282216779472,9.0,8.0,1.0,0.8888888888888888,0.5647314139071586,0.21726282216779472,5.0,4.0,1.0,0.8,,,,0.0,113051.0,113053.0,113127.0,113129.0,113173.0,113195.0,113214.0,113223.0,113481.0,113486.0
99,99,113958.57539939471,206.87951091743523,0.12333166981473741,114081.03494882416,-0.5339360782998854,0.6558850444276438,114185.0319161632,1.7813212624489787,10.3871571006911,114273.11416009821,-0.7514672563082088,0.5610396189640827,114493.84932180027,0.7156249087232049,5.095930801728113,0.5731795230207153,122.0,120.0,194.0,223.0,417.0,2.0,907.0,995.0,2.0,1.0,1.0,0.5,0.6054283140461596,0.22723241140465156,2.0,1.0,1.0,0.5,0.36338004321009715,0.22811316218574126,24.0,13.0,11.0,0.5416666666666666,1.615809133119339,0.22788014264681417,2.0,1.0,1.0,0.5,0.7333607639824207,0.22788014264681417,9.0,6.0,3.0,0.6666666666666666,,,,0.0,113958.0,113960.0,114080.0,114082.0,114172.0,114196.0,114272.0,114274.0,114491.0,114497.0
100,100,115033.80543077925,2.6682883008012666,0.11325706182558885,115108.90980511658,-0.36610129496599003,0.43389879401104886,115185.20091358076,1.7573896600230376,10.549731824889488,115231.59336152703,-3.187851503740129,0.21835018160604616,115493.42466090007,0.7682843627557738,2.5479654008640433,0.5181892569421,75.0,73.0,125.0,262.0,387.0,2.0,1075.0,1005.0,2.0,1.0,1.0,0.5,0.5894913732839002,0.22356283258272008,2.0,1.0,1.0,0.5,0.6203333416413284,0.2249776524890294,25.0,13.0,12.0,0.52,1.7366287207984117,0.2243314925663694,2.0,1.0,1.0,0.5,0.41607618001259516,0.22210196645517244,3.0,1.0,2.0,0.3333333333333333,,,,0.0,115033.0,115035.0,115108.0,115110.0,115172.0,115197.0,115231.0,115233.0,115492.0,115495.0
101,101,115822.57547728319,8.805608783295828,0.18842999871446323,116131.57963825889,-2.913379634549307,0.2296390683543443,116185.63557102907,1.866867157906968,10.308455397699959,116240.4845811038,-2.247211337707854,0.27153767501112414,116475.42466090013,0.5157386369068179,2.5479654008640567,0.531751870869633,309.0,307.0,111.0,234.0,345.0,2.0,789.0,996.0,2.0,1.0,1.0,0.5,0.7351442016751486,0.21714425481330815,2.0,1.0,1.0,0.5,0.683467508784483,0.22357423031874668,20.0,9.0,11.0,0.45,1.8482952151631475,0.22357423031874668,3.0,1.0,2.0,0.3333333333333333,0.326521162417066,0.22357423031874668,2.0,1.0,1.0,0.5,,,,0.0,115822.0,115824.0,116131.0,116133.0,116177.0,116194.0,116237.0,116242.0,116474.0,116476.0
102,102,117077.4246608974,0.39577839859088093,2.0934336078363307,117120.42456061875,-1.401014399819076,0.2795861107998239,117186.0072808305,1.8123691862807356,11.154165235846152,117256.73427261334,-0.4030326894392515,0.5943472775565956,117503.72602069611,0.7185237718702288,7.643896187444903,0.5608663739483186,44.0,41.0,139.0,251.0,390.0,3.0,1254.0,999.0,3.0,2.0,1.0,0.6666666666666666,0.3532072375934949,0.21947828816045736,2.0,1.0,1.0,0.5,0.45776724449237916,0.21947828816045736,28.0,15.0,13.0,0.5357142857142857,1.5847097306899183,0.21947828816045736,3.0,2.0,1.0,0.6666666666666666,0.4543744509830956,0.21947828816045736,36.0,25.0,11.0,0.6944444444444444,,,,0.0,117075.0,117078.0,117119.0,117121.0,117174.0,117199.0,117255.0,117258.0,117502.0,117509.0
103,103,117792.4235166862,0.5152679892271859,0.023751733699340027,118154.83150866623,-0.6469550840983939,0.5052142254697748,118180.69864360057,1.6180820194921544,10.191861603456227,118215.42466090013,-0.46497861074992314,2.5479654008640567,118477.57533909987,0.6432521753623883,2.5479654008640567,0.4529847121570324,363.0,361.0,62.0,263.0,325.0,2.0,715.0,996.0,2.0,1.0,1.0,0.5,0.462282713778515,0.23442671337082946,2.0,1.0,1.0,0.5,0.19885786506843472,0.23442671337082946,31.0,11.0,20.0,0.3548387096774194,2.0993860949863112,0.23442671337082946,5.0,4.0,1.0,0.8,1.1279155314450415,0.23442671337082946,5.0,4.0,1.0,0.8,,,,0.0,117791.0,117793.0,118154.0,118156.0,118175.0,118198.0,118211.0,118216.0,118474.0,118479.0
104,104,119062.72505459517,0.5733347626728442,0.6079983523931836,119141.42466089799,-0.7537339618444276,0.380957578588629,119186.03247871353,1.9133238736454363,10.530003259249803,119271.85733422956,-7.331578935986015,0.06317438661437841,119508.1506782005,0.71112197052192,5.095930801728113,0.5522818384499564,78.0,76.0,133.0,238.0,371.0,2.0,1271.0,1007.0,2.0,1.0,1.0,0.5,0.6024830307722905,0.21843403251125826,3.0,1.0,2.0,0.3333333333333333,0.2784250902699585,0.2235957362766618,25.0,13.0,12.0,0.52,2.144429254118829,0.22633721720642314,2.0,1.0,1.0,0.5,0.5651390977381696,0.23162182883154794,22.0,9.0,13.0,0.4090909090909091,,,,0.0,119062.0,119064.0,119140.0,119144.0,119173.0,119198.0,119271.0,119273.0,119506.0,119511.0
105,105,120027.8748153414,1.2044622209401445,-0.09430119614838574,120147.42466090013,-1.6433745219364577,0.2918523188045598,120186.02924267703,1.8089389358566397,10.212125837419691,120218.60541090753,-0.46319304564686814,2.5479654008640567,120489.42466090013,0.7468028034838463,2.5479654008640567,0.5333486799823507,119.0,117.0,74.0,270.0,344.0,2.0,965.0,1001.0,2.0,1.0,1.0,0.5,0.5024895845255698,0.22297596532477013,2.0,1.0,1.0,0.5,0.46864463314602084,0.2259189033961628,20.0,9.0,11.0,0.45,2.065501086817348,0.22631545471307837,2.0,1.0,1.0,0.5,1.0354216667982556,0.22663791262001337,2.0,1.0,1.0,0.5,,,,0.0,120027.0,120029.0,120146.0,120148.0,120177.0,120197.0,120218.0,120220.0,120488.0,120490.0
106,106,120951.64538462313,1.7963793941534376,0.24923056872425697,121092.9827414911,-0.5199388727389409,0.741859085262148,121184.685376078,1.684225422584761,10.544731930032649,121218.57533909987,-0.42734714155627435,2.5479654008640567,121486.804255394,0.7216314752785784,2.5479654008640567,0.5057720109645965,141.0,139.0,128.0,268.0,396.0,2.0,924.0,995.0,2.0,1.0,1.0,0.5,0.6689190614487099,0.23678672142856133,2.0,1.0,1.0,0.5,0.5001571045155295,0.23941662291972757,28.0,16.0,12.0,0.5714285714285714,1.4994211859817368,0.23222392741023404,5.0,4.0,1.0,0.8,0.6829026144946555,0.232248135983892,4.0,3.0,1.0,0.75,,,,0.0,120951.0,120953.0,121092.0,121094.0,121173.0,121195.0,121215.0,121220.0,121484.0,121488.0
107,107,121848.07255284415,5.926126599904592,-0.0321376966473183,122104.92833317065,-0.5410550642711545,0.588766122620776,122185.59985266768,1.6998406588330586,11.038318490110441,122216.57533909987,-0.5279469525665446,2.5479654008640567,122475.57533910291,0.7021308730819266,2.547964737696743,0.5141324104983679,257.0,255.0,114.0,260.0,374.0,2.0,896.0,1004.0,2.0,1.0,1.0,0.5,0.47721354685540185,0.22608560284557988,2.0,1.0,1.0,0.5,0.7672888862002176,0.23159679559660404,24.0,12.0,12.0,0.5,2.3917387610553824,0.23164227006060772,6.0,5.0,1.0,0.8333333333333334,0.6072478447507161,0.23257273009889187,3.0,1.0,2.0,0.3333333333333333,,,,0.0,121847.0,121849.0,122104.0,122106.0,122174.0,122198.0,122212.0,122218.0,122475.0,122478.0
108,108,123039.57533909987,0.3941575257500824,2.5479654008633528,123136.36156105064,-1.0585500181814824,0.24828148271090078,123184.46443668641,1.869908497481853,11.337511621021502,123259.79901648064,240.66428102794188,-0.05404331009877506,123512.72601729959,0.714682378830286,7.64389620259217,0.5546977277026189,96.0,94.0,126.0,256.0,382.0,2.0,1192.0,1001.0,2.0,1.0,1.0,0.5,0.44648878851256407,0.22864175755026206,2.0,1.0,1.0,0.5,0.4219133482802406,0.22864175755026206,27.0,15.0,12.0,0.5555555555555556,1.813471815794808,0.22864175755026206,2.0,1.0,1.0,0.5,0.14148202762778522,0.22864175755026206,7.0,3.0,4.0,0.42857142857142855,,,,0.0,123039.0,123041.0,123135.0,123137.0,123176.0,123196.0,123256.0,123261.0,123511.0,123517.0
109,109,123911.72370163124,3051.717027909066,0.06677781110604913,124139.25036360897,-0.5376219937816231,0.4461873613975998,124185.45203459915,1.7187832836127932,10.438694067342919,124216.57533909987,-0.4479489871261511,2.5479654008640567,124504.42466090013,0.5705430927747005,2.547965400850776,0.5561328661556297,227.0,224.0,80.0,287.0,367.0,3.0,872.0,1001.0,2.0,1.0,1.0,0.5,0.5208030002475738,0.21395781010648834,2.0,1.0,1.0,0.5,0.33932864665231255,0.2152988615856189,28.0,14.0,14.0,0.5,1.5651088685183245,0.2152988615856189,4.0,3.0,1.0,0.75,0.5965568523467897,0.2152988615856189,3.0,2.0,1.0,0.6666666666666666,,,,0.0,123911.0,123914.0,124138.0,124140.0,124176.0,124194.0,124214.0,124218.0,124502.0,124505.0
110,110,124769.59128208249,3.0347258190849535,0.23164636067666491,125141.37468555896,-1.8448636710449284,0.23807107240456823,125185.01718794956,1.7567257553070028,10.738894260151994,125233.59794901608,-2.7577164386920376,0.227902713903535,125504.10425207746,0.6675132992272798,2.5479654008640567,0.5289644384515764,371.0,369.0,95.0,270.0,365.0,2.0,858.0,998.0,2.0,1.0,1.0,0.5,0.8836076356864568,0.23492390487690762,2.0,1.0,1.0,0.5,0.5334205060824864,0.2291852189142946,28.0,12.0,16.0,0.42857142857142855,1.099132783922867,0.22958897009384693,2.0,1.0,1.0,0.5,0.4717864931361223,0.22958897009384693,2.0,1.0,1.0,0.5,,,,0.0,124769.0,124771.0,125140.0,125142.0,125175.0,125197.0,125233.0,125235.0,125503.0,125505.0
111,111,125758.62936455985,1.5309037145473205,0.2722070369979587,126108.35088398044,-0.6374800394307729,0.5265408434978762,126184.96037044821,1.8034727295384811,9.888255206178195,126230.90649975948,-0.8683708699312106,-0.14596743290348999,126481.42466090013,0.6330306482749148,2.5479654008640567,0.5343443354192651,349.0,347.0,126.0,252.0,378.0,2.0,989.0,997.0,2.0,1.0,1.0,0.5,0.46916840736291515,0.23692797092894072,3.0,1.0,2.0,0.3333333333333333,0.7256605012706854,0.2287751008825653,21.0,11.0,10.0,0.5238095238095238,1.8877995021063199,0.2273996968165471,2.0,1.0,1.0,0.5,0.7365823569940964,0.2273996968165471,5.0,1.0,4.0,0.2,,,,0.0,125758.0,125760.0,126107.0,126110.0,126174.0,126195.0,126230.0,126233.0,126480.0,126485.0
112,112,127054.99210802121,0.6149865035715193,0.15728787976456957,127158.2439181181,-0.3778307448632912,-0.018108282068772852,127187.30135639943,1.8660211219715779,10.190417933696738,127214.0081348874,-0.5468718918869406,1.3447126808957295,127466.42465934563,0.8966928998002036,2.547965400834694,0.5214442697647872,101.0,99.0,61.0,255.0,316.0,2.0,1296.0,1006.0,2.0,1.0,1.0,0.5,0.3854261309519561,0.2215563671044478,2.0,1.0,1.0,0.5,0.41029892349443986,0.2215563671044478,30.0,16.0,14.0,0.5333333333333333,1.3609995373524566,0.2215563671044478,4.0,2.0,2.0,0.5,0.7174687901007384,0.2215563671044478,6.0,1.0,5.0,0.16666666666666666,,,,0.0,127054.0,127056.0,127155.0,127159.0,127172.0,127193.0,127212.0,127216.0,127465.0,127471.0
113,113,127859.39930656878,3.597799855038845,0.2213420826896032,128137.04090684371,-0.4558653428517688,0.7754081562700905,128185.30669163582,1.8490757341206538,10.987995922713475,128218.57533909987,-0.3363287314382699,2.5479654008640567,128499.57533909987,0.8038451344120842,2.5479654008640567,0.5470463993736271,277.0,275.0,86.0,281.0,367.0,2.0,804.0,993.0,2.0,1.0,1.0,0.5,0.5369509148095526,0.22675352201037993,4.0,2.0,2.0,0.5,0.1374728180665319,0.2275633110458413,26.0,11.0,15.0,0.4230769230769231,1.7572248914905328,0.23139144424394795,3.0,1.0,2.0,0.3333333333333333,0.662594286400283,0.2331618851287963,3.0,1.0,2.0,0.3333333333333333,,,,0.0,127858.0,127860.0,128135.0,128139.0,128174.0,128195.0,128218.0,128221.0,128499.0,128502.0
114,114,129033.88619444103,0.6609162677654302,0.5357886523944574,129147.1597793391,-0.32431727391378284,2.8469672167210245,129188.45203459915,1.7663435007766983,10.334488982552925,129220.14987195407,-0.6324094925683579,0.4327730155627781,129519.42466090013,0.6350123054947245,2.547965400863911,0.5137775092667262,113.0,111.0,75.0,299.0,374.0,2.0,1175.0,1009.0,2.0,1.0,1.0,0.5,0.8214208455569847,0.2329626838232983,5.0,1.0,4.0,0.2,0.04670086295115683,0.22702660026657148,29.0,16.0,13.0,0.5517241379310345,1.2764918161613155,0.22749258634284814,2.0,1.0,1.0,0.5,0.6943242631885438,0.22558686890879034,2.0,1.0,1.0,0.5,,,,0.0,129033.0,129035.0,129146.0,129150.0,129175.0,129197.0,129219.0,129221.0,129518.0,129520.0
115,115,130054.06063823697,0.5891018644910656,0.5375034081289642,130094.74469215023,-36.48565600549459,0.0902001307707692,130185.5701403132,1.819108107019974,10.555751245342949,130214.81060815202,-0.2869871008871165,2.5479654008640567,130517.72601729959,0.6866568213559862,7.64389620259217,0.5484129277256142,41.0,39.0,122.0,306.0,428.0,2.0,1020.0,997.0,2.0,1.0,1.0,0.5,0.499890960727842,0.22276600641628547,2.0,1.0,1.0,0.5,0.7387812555604755,0.22825712863783085,24.0,12.0,12.0,0.5,1.891789825201409,0.23988682696221272,2.0,1.0,1.0,0.5,0.6744485926177218,0.2391434726823258,12.0,6.0,6.0,0.5,,,,0.0,130053.0,130055.0,130094.0,130096.0,130174.0,130198.0,130214.0,130216.0,130516.0,130522.0
116,116,131128.8813560377,5117.972033816575,0.027587885315224565,131142.41773302053,-3.4034855036057747,0.21642559108648698,131187.02737369903,1.9201501432755228,9.51867957382692,131243.41225167704,-4.115998614254676,0.1984861432717757,131480.5753390999,0.6777447224922015,2.5479654008300723,0.5396984293120778,13.0,11.0,103.0,238.0,341.0,2.0,1075.0,1002.0,2.0,1.0,1.0,0.5,0.6339952951346517,0.24094884100008632,2.0,1.0,1.0,0.5,0.7319771964186608,0.24299418298053105,19.0,9.0,10.0,0.47368421052631576,1.713188647754996,0.2377410424302607,2.0,1.0,1.0,0.5,0.19343312238176952,0.23870723795930096,3.0,2.0,1.0,0.6666666666666666,,,,0.0,131128.0,131130.0,131141.0,131143.0,131178.0,131197.0,131242.0,131244.0,131479.0,131482.0
117,117,132132.35063827294,133799.1543511433,0.0700591079160242,132143.09600171432,-0.4837460077142238,0.6064575813795005,132184.5256534018,1.7689368350591654,11.791333855751613,132265.72601832627,-0.24398013900612578,3.861161086863453,132485.8280094944,0.7346279076282047,5.051380139010936,0.55237205449034,12.0,9.0,129.0,216.0,345.0,3.0,1003.0,993.0,2.0,1.0,1.0,0.5,0.630363545965527,0.2361019395341083,2.0,1.0,1.0,0.5,0.36840874598401024,0.2386471292913878,28.0,14.0,14.0,0.5,1.8157616088939572,0.22114022560691235,6.0,3.0,3.0,0.5,0.11622417120349804,0.22578181387388443,4.0,3.0,1.0,0.75,,,,0.0,132130.0,132133.0,132142.0,132144.0,132171.0,132199.0,132264.0,132271.0,132483.0,132487.0
118,118,133123.88911022994,0.6935378419749906,0.48912380157267227,133125.9820251996,-0.47512787161620385,1.6491267030979182,133185.36524326168,1.7614733894961538,10.25671530103127,133232.27443264585,-1.5900372290388312,0.24029165497067828,133484.4246608989,0.8022641883902573,2.547965400863942,0.5219590979314345,0.0,-6.0,110.0,255.0,365.0,6.0,992.0,1005.0,2.0,1.0,1.0,0.5,0.38338937081105495,0.23404264651818116,4.0,2.0,2.0,0.5,0.6921822220750369,0.23404264651818116,26.0,11.0,15.0,0.4230769230769231,1.3684053443285784,0.23404264651818116,2.0,1.0,1.0,0.5,0.9075286074620599,0.23404264651818116,5.0,1.0,4.0,0.2,,,,0.0,133123.0,133129.0,133123.0,133128.0,133174.0,133195.0,133231.0,133233.0,133483.0,133488.0
119,119,133869.93530227835,0.6176439604673375,0.624203682691023,134125.32893311663,-38.66291877952608,0.11231745133660101,134185.6718250645,1.7227375401490852,9.957069335765516,134214.2464558731,-0.5926869930024761,1.5871168943487444,134474.15067819975,0.6155940421267139,5.095930801728113,0.557590890918225,254.0,252.0,93.0,261.0,354.0,2.0,746.0,998.0,2.0,1.0,1.0,0.5,0.6465957700383321,0.21884353070121526,2.0,1.0,1.0,0.5,0.4866672329751692,0.22573571501073866,24.0,12.0,12.0,0.5,1.930341367870676,0.22573571501073866,3.0,1.0,2.0,0.3333333333333333,1.080238125441747,0.22573571501073866,14.0,11.0,3.0,0.7857142857142857,,,,0.0,133869.0,133871.0,134123.0,134126.0,134174.0,134198.0,134213.0,134216.0,134469.0,134477.0
120,120,135072.17538241125,1.9515647051597227,-0.13105921771404835,135118.6782414055,-0.6926587128656333,0.4941587443603775,135185.01550272258,1.7571976424752196,11.070708594235342,135220.5753390999,-1.78323971117141,0.2947349467715297,135498.42465089713,0.8314373413265541,2.5479654008640567,0.505663647904738,47.0,45.0,104.0,277.0,381.0,2.0,1202.0,1001.0,2.0,1.0,1.0,0.5,0.6394872429170176,0.23092461885988924,2.0,1.0,1.0,0.5,0.6181444009386343,0.23448142064780822,28.0,14.0,14.0,0.5,1.4852602412548612,0.23442989944191633,2.0,1.0,1.0,0.5,0.5228404271122709,0.23442989944191633,5.0,4.0,1.0,0.8,,,,0.0,135071.0,135073.0,135118.0,135120.0,135176.0,135195.0,135220.0,135222.0,135494.0,135499.0
121,121,136067.91524001962,0.6155271366123902,0.688476888897552,136130.3936293354,-0.7100331510282015,0.5356851621508104,136185.47497828954,1.7417440245366862,10.794384703474005,136214.63383492018,-0.7339156128549612,0.4468415902320724,136499.4246608601,0.7569257742808827,2.5479654008640567,0.5126603370312146,62.0,60.0,87.0,284.0,371.0,2.0,996.0,999.0,2.0,1.0,1.0,0.5,0.8796155429984386,0.20558437429457593,3.0,1.0,2.0,0.3333333333333333,0.5070159823882112,0.2386489284634306,27.0,13.0,14.0,0.48148148148148145,1.6029953152292205,0.2382120167550193,2.0,1.0,1.0,0.5,0.9611623295866725,0.2170028650571336,4.0,3.0,1.0,0.75,,,,0.0,136067.0,136069.0,136129.0,136132.0,136179.0,136197.0,136214.0,136216.0,136496.0,136500.0
122,122,137911.39211302757,2.1765510411958973,0.24254323779755727,138117.37310996282,-0.6741824581431403,0.787758053753428,138185.40333458973,1.6958006989870598,11.151560580221796,138218.7878614366,-1.0105986371974773,0.6066685487100794,138505.15067819975,0.6112489706234414,5.095930801728113,0.54003358410951,206.0,204.0,104.0,288.0,392.0,2.0,1843.0,2000.0,2.0,1.0,1.0,0.5,0.705268987448523,0.2301964257771732,3.0,1.0,2.0,0.3333333333333333,0.5904517503670448,0.22881905313734693,27.0,12.0,15.0,0.4444444444444444,1.595189976518326,0.22881905313734693,2.0,1.0,1.0,0.5,1.2631921065920093,0.22881905313734693,8.0,5.0,3.0,0.625,,,,0.0,137910.0,137912.0,138116.0,138119.0,138173.0,138198.0,138218.0,138220.0,138501.0,138508.0
123,123,139898.15244396467,0.6577443092820865,0.008435621190298559,140126.9454159136,-0.6823605755907921,0.25753394728517787,140185.1995187124,1.6947421434730379,10.55965793481381,140217.5753390999,-0.4580966036387598,2.547965400861955,140493.57548031677,0.6042844647890118,2.547956354378454,0.5042702299702788,229.0,227.0,93.0,278.0,371.0,2.0,1987.0,2002.0,2.0,1.0,1.0,0.5,0.4734079714405334,0.25394994720642267,2.0,1.0,1.0,0.5,0.7449588051147867,0.3021625142053387,26.0,12.0,14.0,0.46153846153846156,1.7005917445856062,0.21733231675556586,6.0,5.0,1.0,0.8333333333333334,0.9426564380492026,0.23555220570326812,4.0,1.0,3.0,0.25,,,,0.0,139897.0,139899.0,140126.0,140128.0,140174.0,140197.0,140213.0,140219.0,140493.0,140497.0
124,124,140947.03529628305,0.634921258785578,0.6230811044790454,141140.9359793597,-0.4035480506174468,0.5629594791652385,141186.60271279886,1.8526374012590445,10.388308091213904,141257.4236720422,-2.707854745228596,0.22315687834192585,141469.32172270797,0.7683402750169708,2.5479654008640567,0.5292798374738215,194.0,192.0,118.0,212.0,330.0,2.0,1049.0,1002.0,2.0,1.0,1.0,0.5,0.9387377068799381,0.2372509922461766,2.0,1.0,1.0,0.5,0.49715331590862893,0.2336945507714728,25.0,14.0,11.0,0.56,1.4913553386902958,0.22801521801144728,2.0,1.0,1.0,0.5,0.10330169368704345,0.22450294155497394,5.0,4.0,1.0,0.8,,,,0.0,140946.0,140948.0,141140.0,141142.0,141175.0,141198.0,141256.0,141258.0,141465.0,141470.0
125,125,141989.36014039037,2.8773626811075985,0.2266848015890885,142115.5753390999,-0.40484151588996115,0.8104793586700149,142185.60271279886,1.7678273733598864,11.440958944591502,142216.4246609001,-0.3928496032796588,2.5479654008640567,142504.15067819975,0.7497340972172338,5.095930801728113,0.5687047808683889,125.0,123.0,104.0,292.0,396.0,2.0,1042.0,999.0,2.0,1.0,1.0,0.5,0.9329039251860496,0.2257377619333508,4.0,3.0,1.0,0.75,0.25303023669166724,0.22065508014321353,24.0,13.0,11.0,0.5416666666666666,1.6226579483208323,0.22056093878972458,2.0,1.0,1.0,0.5,0.9820197850401782,0.22056093878972458,8.0,3.0,5.0,0.375,,,,0.0,141988.0,141990.0,142113.0,142117.0,142177.0,142197.0,142215.0,142217.0,142503.0,142509.0
126,126,142954.09572235422,0.5787312584473248,0.4610046297785972,143147.97761753452,-0.3626327601081352,-0.1302967425133432,143181.69864360054,1.676510395900141,10.191861593495577,143219.4246609001,-0.37060246839516053,2.5479411842636357,143480.0208887019,0.6805574910113207,0.6122713923937511,0.4848725302245149,194.0,192.0,75.0,259.0,334.0,2.0,965.0,991.0,2.0,1.0,1.0,0.5,0.519105943822377,0.22282310293361154,2.0,1.0,1.0,0.5,0.24420552067615137,0.22323228887413865,27.0,10.0,17.0,0.37037037037037035,2.061767704314592,0.22323228887413865,4.0,1.0,3.0,0.25,0.5701107365763021,0.22323228887413865,2.0,1.0,1.0,0.5,,,,0.0,142953.0,142955.0,143147.0,143149.0,143176.0,143196.0,143218.0,143222.0,143479.0,143481.0
127,127,143919.70103460195,0.9197737164691824,0.45125999996505983,144140.6729778877,-1.5255964587992976,0.23625562827220725,144185.52017336377,1.8038819162055166,10.464524929834734,144248.2080502614,-0.3268576393068482,1.8745979993538704,144478.5753390999,0.8043799798361776,2.5479654008640567,0.526529357456468,221.0,219.0,109.0,233.0,342.0,2.0,966.0,1007.0,2.0,1.0,1.0,0.5,0.7642018463583022,0.23235625727278017,2.0,1.0,1.0,0.5,0.5009595439040572,0.23235625727278017,26.0,12.0,14.0,0.46153846153846156,1.3740332427030544,0.23235625727278017,2.0,1.0,1.0,0.5,0.5739941518268616,0.23235625727278017,4.0,1.0,3.0,0.25,,,,0.0,143919.0,143921.0,144140.0,144142.0,144179.0,144199.0,144247.0,144249.0,144478.0,144482.0
128,128,144966.94324233162,0.48269555605440284,-0.13913654424267408,145149.42466088917,-0.3922705440240277,0.8913704410947961,145185.43006887796,1.775111234805742,10.177030054746353,145226.64092959662,-1.213771166890907,0.30144917935095744,145536.07878022193,0.7906581385875907,0.4190692537056802,0.5430367722472919,182.0,180.0,80.0,309.0,389.0,2.0,1047.0,998.0,2.0,1.0,1.0,0.5,0.23282603598800133,0.2177530918484181,4.0,1.0,3.0,0.25,0.18484499363892762,0.22226196532846965,26.0,12.0,14.0,0.46153846153846156,2.0219941303914535,0.22459617492013553,2.0,1.0,1.0,0.5,0.647561529616872,0.2232409524249422,2.0,1.0,1.0,0.5,,,,0.0,144966.0,144968.0,145148.0,145153.0,145173.0,145199.0,145226.0,145228.0,145535.0,145537.0
129,129,146011.79584358833,1.3348523281871418,0.1462692552221714,146136.5753390999,-0.6558428248850031,0.44622451435879645,146188.45203459918,1.7056692843388257,10.527152698611095,146221.6188351078,-0.998986230600219,0.4935647613441151,146461.63888981,1.8700297694943278,0.2677115517893398,0.5166937130168978,124.0,121.0,88.0,240.0,328.0,3.0,1045.0,1006.0,2.0,1.0,1.0,0.5,0.48371928959609695,0.2233925647516915,3.0,2.0,1.0,0.6666666666666666,0.3277873989553343,0.2245618766041524,21.0,12.0,9.0,0.5714285714285714,1.64608277313414,0.22477097518653094,3.0,2.0,1.0,0.6666666666666666,1.0927226498059814,0.22632901378527587,2.0,1.0,1.0,0.5,,,,0.0,146011.0,146014.0,146135.0,146138.0,146176.0,146197.0,146220.0,146223.0,146461.0,146463.0
130,130,146864.33340528628,2.2961652413768445,0.21531191634585958,147129.03078646367,-0.6226084769900602,0.5387297537851303,147184.9850770371,1.7551182143894322,10.682904306070377,147223.5753390999,-0.4412509047851634,2.547965399536638,147519.5753390999,0.45052948288047284,2.547965400858785,0.5361697936340242,265.0,263.0,97.0,296.0,393.0,2.0,852.0,996.0,2.0,1.0,1.0,0.5,0.6032698160068637,0.22733675573364284,2.0,1.0,1.0,0.5,0.735927608464251,0.22306104655677442,23.0,11.0,12.0,0.4782608695652174,1.7385246308036737,0.22168566558693262,5.0,4.0,1.0,0.8,0.4988774457350602,0.2154893799871376,2.0,1.0,1.0,0.5,,,,0.0,146863.0,146865.0,147128.0,147130.0,147174.0,147197.0,147220.0,147225.0,147519.0,147521.0
131,131,147874.80400660093,0.7012596521735968,0.5577338249641615,148124.09574909625,-0.4756112725415815,0.7394772024430709,148185.35547069486,1.7484604264946155,9.938855865949096,148214.4246609001,-0.5545610596924677,2.5479654008640567,148489.4246609001,0.6919105379934973,2.5479654008640567,0.5200910251922758,249.0,247.0,94.0,273.0,367.0,2.0,1011.0,997.0,2.0,1.0,1.0,0.5,0.6658264034788525,0.2234600805723684,2.0,1.0,1.0,0.5,0.32138284354199553,0.22377882913925262,27.0,12.0,15.0,0.4444444444444444,1.5730196975534343,0.2248226814305931,4.0,1.0,3.0,0.25,1.0368478025533558,0.224704689105326,3.0,2.0,1.0,0.6666666666666666,,,,0.0,147874.0,147876.0,148123.0,148125.0,148176.0,148194.0,148213.0,148217.0,148487.0,148490.0
132,132,148913.4246609001,0.4135226830627055,1.311257255840967,149142.14669629242,-0.614581983387009,0.5554724168466918,149185.1234147126,1.8560664091956238,10.454666896585133,149270.38187999898,-1.6215294315569784,0.25545863954289266,149490.39332687826,2.3830450667927328,0.2736662490817346,0.5422460425840071,229.0,225.0,130.0,220.0,350.0,4.0,1038.0,1000.0,4.0,1.0,3.0,0.25,0.34550812285070764,0.20765441237283866,2.0,1.0,1.0,0.5,0.39558524538530626,0.23289871133784867,23.0,11.0,12.0,0.4782608695652174,2.0631044366250846,0.22742368601334623,2.0,1.0,1.0,0.5,0.5653072471970707,0.21053858429239505,2.0,1.0,1.0,0.5,,,,0.0,148912.0,148916.0,149141.0,149143.0,149174.0,149197.0,149269.0,149271.0,149489.0,149491.0
133,133,150062.1153625174,0.5133178251826165,0.633369810821158,150141.23894164263,-0.8459080777691038,0.2637734841257203,150185.4210588201,1.6471588053753137,10.701619884098172,150214.4246609001,-0.5642911799906364,1.9122793211006726,150498.15067819975,0.760412120404924,5.095930801728101,0.5638903149216761,79.0,77.0,76.0,285.0,361.0,2.0,1149.0,1004.0,2.0,1.0,1.0,0.5,0.49440650762085603,0.21098816213006183,2.0,1.0,1.0,0.5,0.5553087185199352,0.21098816213006183,24.0,11.0,13.0,0.4583333333333333,1.6560522724242421,0.21098816213006183,3.0,1.0,2.0,0.3333333333333333,1.0437537876714682,0.21098816213006183,8.0,5.0,3.0,0.625,,,,0.0,150061.0,150063.0,150140.0,150142.0,150174.0,150198.0,150213.0,150216.0,150493.0,150501.0
134,134,150798.20633176545,3.805125952233352,0.1000486376336111,151146.4246609001,-0.9954629850602437,0.3927189464747683,151185.16262494953,1.8210892684263964,10.973991695974808,151217.5753390999,-0.3751345902232705,2.5479654008640567,151475.57534386544,0.7061577642180559,2.5479654008640567,0.5493157733002985,350.0,346.0,74.0,258.0,332.0,4.0,736.0,996.0,2.0,1.0,1.0,0.5,0.2379547116283495,0.21944206891274706,3.0,1.0,2.0,0.3333333333333333,0.5300126645871801,0.21772833910181863,23.0,10.0,13.0,0.43478260869565216,1.7815395724119187,0.21772833910181863,4.0,3.0,1.0,0.75,0.8714569411600634,0.21772833910181863,3.0,2.0,1.0,0.6666666666666666,,,,0.0,150795.0,150799.0,151145.0,151148.0,151175.0,151198.0,151215.0,151219.0,151474.0,151477.0
135,135,152031.90235669978,0.7119112272582492,0.6955114054720964,152152.4229576785,-2.5495131370293276,0.237983945766744,152185.60271279886,1.8262662288883,10.634172097001343,152223.34848552963,-2.3591190973831426,0.20335757547119282,152453.75523240454,0.6429414510456262,2.547965400863458,0.5066220849937341,119.0,117.0,74.0,231.0,305.0,2.0,1234.0,1005.0,2.0,1.0,1.0,0.5,1.2124740033428993,0.2423049356700143,2.0,1.0,1.0,0.5,0.10384910467627162,0.24098617420107848,25.0,13.0,12.0,0.52,1.6050280727362058,0.24197470408488914,2.0,1.0,1.0,0.5,0.819213074490496,0.23996478916186195,3.0,2.0,1.0,0.6666666666666666,,,,0.0,152031.0,152033.0,152150.0,152153.0,152178.0,152197.0,152222.0,152224.0,152452.0,152455.0
136,136,152987.76026737603,22.682408833012747,0.0917518247622336,153146.5756342301,-1.2029873168644185,0.2974413628791149,153183.54796540082,1.8048360559681496,10.976718164848482,153223.33613117543,-2.3095934940038525,0.22731606434008303,153525.83916811057,0.63296364731648,2.5479654008640567,0.521378900072689,159.0,157.0,78.0,303.0,381.0,2.0,956.0,992.0,2.0,1.0,1.0,0.5,0.6228967056941523,0.22436651954672823,2.0,1.0,1.0,0.5,0.3958310587189885,0.22436651954672823,23.0,12.0,11.0,0.5217391304347826,2.049255141971811,0.22436651954672823,2.0,1.0,1.0,0.5,0.6378784325976655,0.22436651954672823,2.0,1.0,1.0,0.5,,,,0.0,152987.0,152989.0,153146.0,153148.0,153175.0,153195.0,153222.0,153224.0,153525.0,153527.0
137,137,153902.1974777768,2.838912934743646,0.10082956263133838,154124.4246608996,-1.9390749101254166,0.28270329457521903,154185.52697752524,1.6461572324172034,10.226226281909264,154281.35651795423,-2.6200022189606336,0.2152020750447569,154495.15067819975,0.6856220667357659,5.095930801728113,0.5238986359437257,222.0,220.0,159.0,216.0,375.0,2.0,914.0,1004.0,2.0,1.0,1.0,0.5,0.45198229202273044,0.23339880469956728,2.0,1.0,1.0,0.5,0.5072207622399342,0.23062762649871177,22.0,13.0,9.0,0.5909090909090909,1.6252584147685551,0.23062762649871177,2.0,1.0,1.0,0.5,0.571824978340765,0.23062762649871177,13.0,2.0,11.0,0.15384615384615385,,,,0.0,153901.0,153903.0,154123.0,154125.0,154173.0,154195.0,154280.0,154282.0,154494.0,154498.0
138,138,154893.91830950024,0.49725717223305854,0.5268553290088596,155144.32467724686,-0.4015074969441,1.0789883381611642,155188.87669549932,1.782415560310049,10.613906620320426,155216.5753390999,-0.44862145917492,2.5479654008640567,155489.58756609555,0.5845320657782991,2.5479654008640567,0.5223039865426552,250.0,248.0,75.0,273.0,348.0,2.0,992.0,1006.0,2.0,1.0,1.0,0.5,0.542363763902002,0.21753939209413353,3.0,1.0,2.0,0.3333333333333333,0.3918318846731391,0.22128441268860571,27.0,16.0,11.0,0.5925925925925926,1.0953257170069244,0.22186699632998175,3.0,2.0,1.0,0.6666666666666666,1.0035925856190748,0.22276048889017971,3.0,2.0,1.0,0.6666666666666666,,,,0.0,154893.0,154895.0,155143.0,155146.0,155175.0,155196.0,155215.0,155218.0,155488.0,155491.0
139,139,156072.34699598793,1.694446079991337,0.2459840040721126,156095.94531582439,-0.3716077064369618,0.6764397971637803,156185.7743879968,1.7393542854475599,11.111772635568974,156213.4246609001,-0.48756651568713066,2.5479654008640567,156496.27391591025,0.8056292621388539,7.64389620259217,0.5779372714779117,24.0,22.0,119.0,287.0,406.0,2.0,1178.0,994.0,2.0,1.0,1.0,0.5,0.5475864130541304,0.20218780592741764,2.0,1.0,1.0,0.5,0.5045820942751722,0.20471859679014673,27.0,14.0,13.0,0.5185185185185185,1.3179920341708287,0.2092796571008608,2.0,1.0,1.0,0.5,1.2087369579086826,0.20999939119168026,21.0,14.0,7.0,0.6666666666666666,,,,0.0,156071.0,156073.0,156095.0,156097.0,156174.0,156198.0,156212.0,156214.0,156492.0,156501.0
140,140,157062.42442063682,1.6671951323493963,0.2893317386851301,157089.5755115654,-0.7683694304603998,-0.04805124615764084,157185.5736546298,1.8923078994358111,10.166584991960113,157243.11221536933,-0.5795855750554828,0.15631729834624697,157480.84729456902,0.7934879777430356,2.5479635539392,0.5176757697114611,28.0,26.0,155.0,238.0,393.0,2.0,990.0,1004.0,2.0,1.0,1.0,0.5,0.3570065469950545,0.24174338518533728,2.0,1.0,1.0,0.5,0.6381953882707749,0.24016720411216583,30.0,16.0,14.0,0.5333333333333333,1.2838535630861037,0.24101127136623815,2.0,1.0,1.0,0.5,0.5021226666224814,0.23993119555100487,3.0,2.0,1.0,0.6666666666666666,,,,0.0,157061.0,157063.0,157089.0,157092.0,157177.0,157200.0,157242.0,157244.0,157479.0,157482.0
141,141,158064.4246609001,0.41501037072505986,2.5479654008640367,158130.89961281876,-0.5931217252683876,-0.11741975310676293,158185.38221224278,1.9597356284851244,10.854758523119857,158263.47984637343,-2.4345963503473005,-0.2356276514432613,158508.84932180025,0.797038212386496,5.095930801728113,0.5657531227910213,66.0,64.0,136.0,245.0,381.0,2.0,1002.0,998.0,2.0,1.0,1.0,0.5,0.428344533463233,0.2267856276893322,2.0,1.0,1.0,0.5,0.5615098561091385,0.22995004181947423,28.0,13.0,15.0,0.4642857142857143,1.6848615495158543,0.22786162098812907,3.0,1.0,2.0,0.3333333333333333,0.31772708897340896,0.2316321482332639,43.0,28.0,15.0,0.6511627906976745,,,,0.0,158063.0,158065.0,158129.0,158132.0,158174.0,158195.0,158261.0,158265.0,158506.0,158510.0
142,142,158877.61013758858,1776.9374348305037,0.09755627655446748,159089.71358402853,-0.48359084393844026,0.866378888053952,159185.51987247213,1.858628832750201,10.635095401812448,159215.25315220674,-0.38245246237234387,2.5479654008622465,159488.84932180025,0.5954892207124635,5.095930801728113,0.5603479871077234,211.0,209.0,128.0,274.0,402.0,2.0,814.0,1000.0,2.0,1.0,1.0,0.5,0.37935951702285414,0.29353265863349537,3.0,2.0,1.0,0.6666666666666666,0.5668099249550554,0.18186350164710974,24.0,13.0,11.0,0.5416666666666666,1.8500248237003682,0.24748547151196643,4.0,3.0,1.0,0.75,0.9559431927930981,0.2839098695146612,7.0,5.0,2.0,0.7142857142857143,,,,0.0,158877.0,158879.0,159088.0,159091.0,159173.0,159197.0,159212.0,159216.0,159486.0,159490.0
143,143,159918.42261425278,1.3268458278414321,0.30570999474042354,160114.4245603126,-1.0892660597821944,0.2607543663207384,160184.82194810128,1.8050317784718641,11.753506521399347,160216.57533910716,-0.43168082614884745,2.547531050066608,160501.4228903052,0.8838648202385734,2.5479654008640567,0.5296549567884681,196.0,194.0,105.0,284.0,389.0,2.0,1040.0,994.0,2.0,1.0,1.0,0.5,0.7033366376823689,0.22715455030878332,2.0,1.0,1.0,0.5,0.18138616679083625,0.23106497066459636,27.0,13.0,14.0,0.48148148148148145,1.5595459792199295,0.23106497066459636,2.0,1.0,1.0,0.5,0.9683682234814253,0.23106497066459636,2.0,1.0,1.0,0.5,,,,0.0,159917.0,159919.0,160113.0,160115.0,160172.0,160198.0,160216.0,160218.0,160500.0,160502.0
144,144,160913.9791177711,0.8104331044638973,0.022493880473228735,161112.0917819206,-0.7173406177460897,0.5554750107653437,161184.97262630097,1.75303412065089,10.170133013437855,161216.89443451128,-0.5118013909899196,2.5479654008640003,161492.4246609001,0.6449888088938922,2.5479654008640567,0.5434792149761029,198.0,196.0,107.0,276.0,383.0,2.0,996.0,1001.0,2.0,1.0,1.0,0.5,0.5486888299025379,0.2338180274402331,2.0,1.0,1.0,0.5,0.6386466292635125,0.2338649556654762,24.0,11.0,13.0,0.4583333333333333,1.5859555574032322,0.2338649556654762,3.0,2.0,1.0,0.6666666666666666,1.0588724195456005,0.2338649556654762,3.0,1.0,2.0,0.3333333333333333,,,,0.0,160913.0,160915.0,161111.0,161113.0,161175.0,161198.0,161215.0,161218.0,161491.0,161494.0
145,145,161825.64668172892,2.1079423170499134,0.22282340782561239,162114.27898093584,-0.6381513905487932,0.6800251750154891,162185.3499170918,1.733786164748522,10.784809029398202,162215.42466090008,-0.4537164105280095,2.547965400863441,162516.2938108802,0.9735447459350207,0.5468937710859145,0.5254388863644375,288.0,286.0,103.0,301.0,404.0,2.0,912.0,1002.0,2.0,1.0,1.0,0.5,0.6888887054709866,0.23388848970952392,3.0,1.0,2.0,0.3333333333333333,0.8422276502208619,0.23081483801823952,29.0,13.0,16.0,0.4482758620689655,1.5511144302962545,0.23081483801823952,3.0,2.0,1.0,0.6666666666666666,1.051134530266415,0.23081483801823952,2.0,1.0,1.0,0.5,,,,0.0,161825.0,161827.0,162113.0,162116.0,162174.0,162199.0,162213.0,162216.0,162515.0,162517.0
146,146,163041.35459975203,1.9144071267760583,0.2252904850835405,163145.4246609001,-0.5010395280901626,1.1273392612036988,163181.54796540082,1.6140945891329133,10.876098065907629,163224.42466089912,-1.1317235601153675,0.43081412334095254,163489.5753390999,0.689686843822583,2.547965400748371,0.46835902988473915,104.0,102.0,82.0,265.0,347.0,2.0,1215.0,995.0,2.0,1.0,1.0,0.5,0.49658934546608513,0.23657457320878508,4.0,1.0,3.0,0.25,0.5182796237943612,0.23657457320878508,27.0,11.0,16.0,0.4074074074074074,2.105049404642979,0.23657457320878508,3.0,1.0,2.0,0.3333333333333333,0.6728285894706456,0.23657457320878508,4.0,3.0,1.0,0.75,,,,0.0,163040.0,163042.0,163144.0,163148.0,163173.0,163198.0,163223.0,163226.0,163487.0,163491.0
147,147,164133.57681466627,1.8211952387122965,0.31394886954868967,164146.4242466603,-1.2230334782701031,0.30911178891350627,164185.65059826785,1.8002808645054416,10.557977921528568,164220.4246609,-0.8658695423035239,0.47387210634572546,164500.4244518303,0.8157257318749812,2.547965037605937,0.5010423647722249,12.0,10.0,77.0,279.0,356.0,2.0,1093.0,1006.0,2.0,1.0,1.0,0.5,0.5344410741303492,0.23914404377188947,2.0,1.0,1.0,0.5,0.3331237371726392,0.23914404377188947,22.0,11.0,11.0,0.5,1.893098298251754,0.23914404377188947,3.0,1.0,2.0,0.3333333333333333,0.6125030067475866,0.23914404377188947,4.0,3.0,1.0,0.75,,,,0.0,164133.0,164135.0,164145.0,164147.0,164175.0,164197.0,164219.0,164222.0,164497.0,164501.0
148,148,165042.07185447204,0.661459737158672,-0.14322734665486972,165155.39583528906,-1.6644666175052893,0.24563767310687332,165185.18425795375,1.7901318719340786,11.118796396852739,165245.33540324552,-0.4822505231906252,0.6520385991248193,165504.5753390999,0.7186620915174565,2.5479654008640567,0.5283610554774396,112.0,110.0,94.0,259.0,353.0,2.0,908.0,1002.0,2.0,1.0,1.0,0.5,0.7203806877902692,0.21539634205058994,2.0,1.0,1.0,0.5,0.03500957345516284,0.22259898218711643,29.0,14.0,15.0,0.4827586206896552,1.6891049789833688,0.22845793345972973,3.0,1.0,2.0,0.3333333333333333,0.41467567599726346,0.23208599378334202,6.0,5.0,1.0,0.8333333333333334,,,,0.0,165041.0,165043.0,165153.0,165156.0,165173.0,165196.0,165244.0,165247.0,165500.0,165506.0
149,149,166059.9034684407,0.6386213163242902,0.8091927367251347,166145.64910858776,-29571.375462592594,-0.07393555954829646,166185.52891256707,1.7671440019130549,11.542948822480358,166218.3329695653,-0.760978510724206,0.5555817215350524,166501.7260172996,0.7822654763444488,7.64389620259217,0.5421802615137611,87.0,84.0,75.0,286.0,361.0,3.0,1018.0,997.0,3.0,2.0,1.0,0.6666666666666666,0.8513677457005202,0.22580609558162662,2.0,1.0,1.0,0.5,0.2463469133203878,0.2251437687040073,23.0,12.0,11.0,0.5217391304347826,1.8099962861959722,0.22455014959316358,3.0,1.0,2.0,0.3333333333333333,0.7717261388876363,0.22537117843732446,9.0,4.0,5.0,0.4444444444444444,,,,0.0,166058.0,166061.0,166145.0,166149.0,166174.0,166197.0,166217.0,166220.0,166499.0,166506.0
150,150,167931.8451596857,1.8136567598665454,0.004587594212635215,168099.6073975134,-1.4350787062630703,0.29097587149702625,168185.27108781974,1.7049117468403572,9.499890727779139,168216.42466082636,-0.46067394645973464,2.5479654008614867,168493.4246609001,0.5872584540702833,2.547965400862519,0.5139397331876584,168.0,166.0,118.0,279.0,397.0,2.0,1872.0,2003.0,2.0,1.0,1.0,0.5,0.35153486533243233,0.21646533738988027,2.0,1.0,1.0,0.5,0.390359206003548,0.2215701291786433,20.0,8.0,12.0,0.4,1.5951778084741601,0.2189545135365894,2.0,1.0,1.0,0.5,0.8177806255790644,0.22085609877883802,4.0,1.0,3.0,0.25,,,,0.0,167931.0,167933.0,168099.0,168101.0,168177.0,168197.0,168215.0,168217.0,168492.0,168496.0
151,151,169122.0388925161,0.6828402022324693,0.37287269622204766,169156.69864359926,0.13605940723539883,10.191861534941463,169186.04517836616,1.8699552164902071,10.10104797503339,169270.2740858433,-0.6887699798425284,0.47451210681443234,169476.4246608973,0.8627653701883429,2.5479643780515926,0.5337199855125897,30.0,28.0,120.0,206.0,326.0,2.0,1190.0,1000.0,2.0,1.0,1.0,0.5,0.5018366691540291,0.22070451225933385,5.0,2.0,3.0,0.4,0.7284525886379566,0.21968991040283875,24.0,11.0,13.0,0.4583333333333333,1.7442913610274418,0.21813123969232234,2.0,1.0,1.0,0.5,0.7467917621307867,0.21857840509359608,2.0,1.0,1.0,0.5,,,,0.0,169121.0,169123.0,169151.0,169160.0,169175.0,169197.0,169269.0,169271.0,169475.0,169477.0
152,152,169783.92252956537,0.5127069876611056,0.1331486991710876,170126.85569519585,-1.0993248257601334,0.1405888316052972,170185.53377514298,1.6521626701250403,9.99273460902613,170277.5753390999,-1.5672156382880604,0.3106594044298471,170472.57533910027,0.5082664228514432,2.5479654008640567,0.5278607207693082,343.0,341.0,156.0,192.0,348.0,2.0,662.0,997.0,2.0,1.0,1.0,0.5,0.4294595207011468,0.20054178820832616,2.0,1.0,1.0,0.5,0.7098266860213465,0.20893327972020928,26.0,13.0,13.0,0.5,1.4722389704018395,0.21048365869548755,2.0,1.0,1.0,0.5,0.5095576504361281,0.21225546788320307,3.0,2.0,1.0,0.6666666666666666,,,,0.0,169783.0,169785.0,170126.0,170128.0,170173.0,170197.0,170277.0,170282.0,170471.0,170474.0
153,153,171186.58412145366,2.8086161593356076,13.890506208769299,171191.2109835697,-1.2001823538118732,21.79547774595688,171192.20972372184,9472.162476802583,-0.047525299028569355,171200.5753390999,0.4133424070252011,-0.5360052643394988,171473.91540197504,0.6565940912096826,2.5479654008640567,0.5314626159245621,-1.0,-24.0,30.0,274.0,304.0,23.0,1405.0,1008.0,23.0,14.0,9.0,0.6086956521739131,1.6164259985402194,0.22498112929653183,30.0,19.0,11.0,0.6333333333333333,0.6886015034892474,0.22460872544419783,5.0,1.0,4.0,0.2,1.3005330496919152,0.22477134647424868,30.0,29.0,1.0,0.9666666666666667,0.2554022196800603,0.2236724694565693,3.0,1.0,2.0,0.3333333333333333,,,,0.0,171173.0,171196.0,171172.0,171202.0,171191.0,171196.0,171172.0,171202.0,171473.0,171476.0
154,154,171841.5753390999,1.2085342732246052,0.31780570621241166,172149.88137120186,-0.6984577254617119,0.7696115767120822,172185.23892856782,1.7071592256414256,10.315574825416403,172242.19486957663,-2.151450517278084,0.13146279648018128,172487.4246609001,0.6538498272469566,2.5479654008640567,0.538500259794058,307.0,305.0,95.0,245.0,340.0,2.0,653.0,993.0,2.0,1.0,1.0,0.5,0.4243011884425635,0.21599603870389233,3.0,2.0,1.0,0.6666666666666666,0.6311932116043903,0.22036381391096907,19.0,11.0,8.0,0.5789473684210527,2.273671909731716,0.22931131585715359,2.0,1.0,1.0,0.5,0.5673418537604185,0.34483910935199946,3.0,2.0,1.0,0.6666666666666666,,,,0.0,171841.0,171843.0,172148.0,172151.0,172174.0,172193.0,172241.0,172243.0,172485.0,172488.0
155,155,172995.41810212133,1.7419930078264687,0.2749241606683266,173131.8115695946,-1.0455094290822913,0.14314755926657965,173185.7037275203,1.862678503755928,10.97956176836276,173236.6594596807,-1.0293130365470877,0.27363049462691813,173522.07452685654,1.1088626472949923,0.5395867130285129,0.5374493953983774,137.0,135.0,107.0,285.0,392.0,2.0,1153.0,997.0,2.0,1.0,1.0,0.5,0.7747663767250486,0.2282466059934261,2.0,1.0,1.0,0.5,0.39285219767998836,0.22791545368518856,25.0,13.0,12.0,0.52,1.7117004147094204,0.2294572843866863,2.0,1.0,1.0,0.5,0.3910392961086243,0.22905742867127687,2.0,1.0,1.0,0.5,,,,0.0,172994.0,172996.0,173131.0,173135.0,173173.0,173198.0,173236.0,173238.0,173521.0,173523.0
156,156,173711.96325098618,0.654730770529219,-0.10663110585804307,174155.5753390999,-0.6703096078172605,1.034379808614481,174183.54796540082,1.698359110690745,10.161708910046249,174221.70512088927,-0.4242165781750459,2.5479654008640567,174484.4246609001,0.5237389873742404,2.5479654008640567,0.5441355358078468,442.0,438.0,73.0,259.0,332.0,4.0,717.0,999.0,2.0,1.0,1.0,0.5,0.6981969824155345,0.22522553326118905,4.0,3.0,1.0,0.75,0.2802473284307533,0.22600274118324934,21.0,9.0,12.0,0.42857142857142855,2.1201856780113335,0.22291057738726486,5.0,1.0,4.0,0.2,0.5978309685701995,0.2182683443120941,3.0,2.0,1.0,0.6666666666666666,,,,0.0,173711.0,173715.0,174153.0,174157.0,174175.0,174196.0,174221.0,174226.0,174482.0,174485.0
157,157,174907.42437020448,2.5225693137979643,0.2572822982284398,175120.42463075524,-1.9150965777936872,0.2526247264875692,175186.02737369903,1.8118051341792485,10.835576786003406,175213.4246609001,-0.49386857967873815,2.5479654008640567,175508.42461996124,0.780937447463627,2.5479654008640567,0.5219692251994388,213.0,211.0,96.0,294.0,390.0,2.0,1195.0,1008.0,2.0,1.0,1.0,0.5,0.5252734304712201,0.23209586097264098,2.0,1.0,1.0,0.5,0.4996540220699017,0.22860732061267233,28.0,14.0,14.0,0.5,1.1695364860399042,0.22860732061267233,3.0,1.0,2.0,0.3333333333333333,1.240039548612619,0.22860732061267233,3.0,2.0,1.0,0.6666666666666666,,,,0.0,174906.0,174908.0,175119.0,175121.0,175174.0,175196.0,175212.0,175215.0,175506.0,175509.0
158,158,176064.5753390999,0.9050550142010549,0.48295691202044677,176142.1506782002,0.6728209453564508,0.11757675997711114,176187.45203459918,1.835836702524495,10.97782880329691,176215.5753390999,-0.5083815278551534,2.5479654008640567,176486.2739827004,0.8065648510963399,7.64389620259217,0.5726623129355655,78.0,75.0,76.0,272.0,348.0,3.0,1158.0,1001.0,3.0,2.0,1.0,0.6666666666666666,0.6338880169008083,0.21901900493699467,2.0,1.0,1.0,0.5,0.292314683126601,0.21901900493699467,25.0,14.0,11.0,0.56,1.4815912230662458,0.21901900493699467,2.0,1.0,1.0,0.5,1.056251584239362,0.21901900493699467,10.0,7.0,3.0,0.7,,,,0.0,176063.0,176066.0,176141.0,176146.0,176174.0,176196.0,176215.0,176217.0,176482.0,176489.0
159,159,176859.5808658732,3.5851999131201913,0.242973191936392,177105.575357164,-1.4347049778647984,0.26088097873310967,177184.39728720114,1.8492526087069714,11.775594471647091,177243.39339581595,-1.6024499079186172,0.22140582696852687,177465.5753390999,0.667351704325998,2.5479646148048967,0.5359703780138358,246.0,244.0,139.0,223.0,362.0,2.0,795.0,991.0,2.0,1.0,1.0,0.5,1.037825378499782,0.2283768885603148,2.0,1.0,1.0,0.5,0.27289041413926246,0.22983556673879948,33.0,15.0,18.0,0.45454545454545453,1.7600653574124179,0.2282923209838879,2.0,1.0,1.0,0.5,0.46599455159073166,0.22885856205923225,2.0,1.0,1.0,0.5,,,,0.0,176859.0,176861.0,177105.0,177109.0,177173.0,177200.0,177242.0,177244.0,177465.0,177467.0
160,160,178052.5753390999,0.6380218238062214,1.1088365901122414,178122.20661454805,-12.336571716632843,0.08193334780121157,178185.39218914014,1.8729833816672092,10.837792001497693,178287.21032087118,-0.5590673220608849,0.6517932718336024,178499.5753390999,0.8558260428744149,2.547964408147584,0.5322961832856038,71.0,67.0,169.0,211.0,380.0,4.0,1193.0,1008.0,4.0,3.0,1.0,0.75,0.5649176728036908,0.2366256006872606,2.0,1.0,1.0,0.5,0.4946531373922737,0.236479636571567,26.0,12.0,14.0,0.46153846153846156,1.9990679697108202,0.23290726704996362,3.0,1.0,2.0,0.3333333333333333,0.40233105973159106,0.23332247212640603,7.0,6.0,1.0,0.8571428571428571,,,,0.0,178050.0,178054.0,178121.0,178123.0,178173.0,178199.0,178286.0,178290.0,178494.0,178501.0
161,161,178779.42213194072,2.2027515832709126,0.24194222614400596,179158.01014909672,-0.6700634616808429,0.4840363019009779,179185.55150844375,1.7817222913933224,10.090824984813786,179220.83755095556,-0.7677579758481139,0.5018805650267244,179505.08089256127,0.629713574459012,7.64389620259217,0.5849781165788287,380.0,377.0,65.0,287.0,352.0,3.0,726.0,996.0,2.0,1.0,1.0,0.5,0.49379612938868667,0.21735671573705237,2.0,1.0,1.0,0.5,0.10182846536945434,0.223697712683196,26.0,13.0,13.0,0.5,2.004654070784357,0.22030533314963074,2.0,1.0,1.0,0.5,0.6355231573389617,0.2103735921877687,13.0,4.0,9.0,0.3076923076923077,,,,0.0,178777.0,178780.0,179157.0,179159.0,179173.0,179199.0,179220.0,179222.0,179502.0,179509.0
162,162,179951.07983257613,1.5384319127863717,0.05631168337569368,180102.0855621,-0.8694787573895333,-0.09680587824672136,180185.65941412118,1.7947511465602188,10.388820275314316,180219.6472327738,-0.8453079415282393,0.5819001940301762,180483.29690237725,0.6758553974717457,2.5479654008640567,0.5372541642969831,151.0,149.0,120.0,264.0,384.0,2.0,1172.0,1002.0,2.0,1.0,1.0,0.5,0.5291571331339329,0.21820874048604438,2.0,1.0,1.0,0.5,0.6748239522129416,0.21530758091433358,26.0,12.0,14.0,0.46153846153846156,1.4915888639528054,0.21530758091433358,3.0,2.0,1.0,0.6666666666666666,1.0794248043189576,0.21530758091433358,3.0,1.0,2.0,0.3333333333333333,,,,0.0,179950.0,179952.0,180101.0,180103.0,180174.0,180198.0,180218.0,180221.0,180482.0,180485.0
163,163,180993.83199931483,1.2444538475805296,0.1332052367342772,181149.57533910274,-0.9307557414118172,0.3786899291936474,181184.12330450068,1.6662732058048138,10.071706849525636,181216.4246609001,-0.6237616679161911,2.5479654008640567,181497.4246609001,0.5667812262701991,2.547965400864056,0.5276603524456781,155.0,153.0,72.0,278.0,350.0,2.0,1043.0,995.0,2.0,1.0,1.0,0.5,0.5579754241131706,0.22969460812835077,3.0,2.0,1.0,0.6666666666666666,0.4551489541311613,0.22179897875198515,22.0,8.0,14.0,0.36363636363636365,1.5752349415970528,0.22495656023141516,5.0,1.0,4.0,0.2,1.2767763873269757,0.22925054473629491,3.0,2.0,1.0,0.6666666666666666,,,,0.0,180993.0,180995.0,181148.0,181151.0,181177.0,181198.0,181215.0,181220.0,181495.0,181498.0
164,164,182058.64418060603,2.3808482563549416,0.2203154635671505,182129.57543631035,-1.6859365109321847,0.25238738909287667,182185.39728720114,1.7640100577404032,11.051853197481242,182217.5753488378,-0.45920148639062175,2.5477887516885542,182518.4246609001,0.7537501820287271,2.5479654008640567,0.5138156261456269,71.0,69.0,90.0,300.0,390.0,2.0,1065.0,1000.0,2.0,1.0,1.0,0.5,0.5381995695061979,0.22644276921003031,2.0,1.0,1.0,0.5,0.7081273542583649,0.22501155805633402,24.0,11.0,13.0,0.4583333333333333,2.005230401010833,0.22700807102948276,3.0,2.0,1.0,0.6666666666666666,0.9891649567692153,0.2318224405165793,2.0,1.0,1.0,0.5,,,,0.0,182058.0,182060.0,182129.0,182131.0,182174.0,182198.0,182216.0,182219.0,182517.0,182519.0
165,165,182869.57636818875,1.335527961069368,0.3099523842727155,183118.57793510586,-1.7034217475347182,0.2744175530878089,183185.72583537505,1.7907153158984448,10.484460706867699,183215.9320495185,-0.45407351721394745,5.095930527183066,183450.42466090003,0.5834813932561844,2.547693729141041,0.5201752367978865,249.0,247.0,100.0,235.0,335.0,2.0,811.0,1003.0,2.0,1.0,1.0,0.5,0.30005735513318205,0.2277359670736531,2.0,1.0,1.0,0.5,0.317190641604345,0.22934252620640064,24.0,13.0,11.0,0.5416666666666666,1.573097514991019,0.22934252620640064,4.0,2.0,2.0,0.5,0.9051429600560699,0.22934252620640064,4.0,1.0,3.0,0.25,,,,0.0,182869.0,182871.0,183118.0,183120.0,183175.0,183196.0,183214.0,183218.0,183449.0,183453.0
166,166,183986.2559485502,0.6341254765700953,0.45358970896416284,184106.7319637709,-0.3886840703830842,0.4751532426504513,184185.1248498348,1.844726651964035,11.127238280363603,184214.4246609001,-0.3926290836233987,2.547958076872114,184499.5753390999,0.8832543998181659,2.5479654008640567,0.5547558090434787,121.0,119.0,109.0,286.0,395.0,2.0,1116.0,1001.0,2.0,1.0,1.0,0.5,0.7984591830553285,0.2225736602291398,2.0,1.0,1.0,0.5,0.21206260336756746,0.22284968842128486,23.0,10.0,13.0,0.43478260869565216,1.8757846401982357,0.20598272829647168,2.0,1.0,1.0,0.5,1.0547825471085337,0.20958428201751836,6.0,5.0,1.0,0.8333333333333334,,,,0.0,183985.0,183987.0,184106.0,184108.0,184175.0,184198.0,184213.0,184215.0,184495.0,184501.0
167,167,184873.07604933542,0.7147699227521174,0.11923841947565268,185149.90525837024,-0.48168499880487997,1.2760173923146418,185185.5498959018,1.7330283616039426,10.30457921463641,185263.57540364863,-1.6955145889254857,0.2692989822580139,185502.4243656844,0.6934788887749626,2.5479653528541397,0.5315849402958404,279.0,275.0,116.0,239.0,355.0,4.0,887.0,999.0,2.0,1.0,1.0,0.5,0.7068769356501494,0.2202563938755624,2.0,1.0,1.0,0.5,0.662667334823494,0.2183917282581007,24.0,11.0,13.0,0.4583333333333333,1.6629197758367207,0.2183917282581007,2.0,1.0,1.0,0.5,0.7010626154032941,0.2183917282581007,3.0,1.0,2.0,0.3333333333333333,,,,0.0,184870.0,184874.0,185149.0,185151.0,185175.0,185195.0,185263.0,185265.0,185501.0,185504.0
168,168,186077.4246609001,1.160960301553958,0.40759005790871683,186143.8374392731,-0.242144392983913,1.504065593251116,186186.60271279886,1.7854885588497191,10.551228030550464,186216.5753390999,-0.5371710060258936,2.5479654008640567,186462.4191822171,0.7519181650521205,2.5479654008640567,0.5192410498903728,67.0,64.0,75.0,245.0,320.0,3.0,1204.0,1005.0,3.0,1.0,2.0,0.3333333333333333,0.9081678590122996,0.23555706416436148,2.0,1.0,1.0,0.5,0.1961999738391016,0.22935286546356443,28.0,16.0,12.0,0.5714285714285714,1.4599489075076606,0.2296347219640715,2.0,1.0,1.0,0.5,1.1038960271705012,0.22886588606129868,3.0,2.0,1.0,0.6666666666666666,,,,0.0,186076.0,186079.0,186143.0,186145.0,186175.0,186198.0,186216.0,186218.0,186460.0,186463.0
